-2
-76
-64
-4
63
99
116
84
66
75
99
46
-74
-48
-4
-29
29
75
79
94
77
-11
-109
-115
-117
-123
-79
-59
-60
-62
-72
-53
2
31
11
10
44
93
116
113
81
42
16
-44
-76
-57
-68
-94
-14
33
38
79
65
34
-11
-13
2
19
-5
-134
-176
-109
-71
-75
-69
-9
38
57
53
-6
9
94
165
185
165
141
67
-17
-87
-113
-128
-137
-62
-4
-3
87
133
84
150
224
158
-44
-161
-181
-182
-100
-29
3
-24
-10
47
59
34
16
-29
-32
54
74
57
29
-16
-41
-55
-109
-142
-107
-82
-80
-52
21
37
70
92
47
6
-21
-11
-24
-52
-49
-14
-41
-76
19
146
163
133
140
127
72
-51
-152
-202
-147
-74
-82
-33
-29
-62
-25
19
26
36
-10
-60
-36
-9
49
68
57
78
80
94
85
95
120
51
24
67
85
64
-49
-110
-67
-115
-210
-148
-51
-59
-65
-65
-56
-81
-48
18
-1
62
170
258
253
141
22
-50
-22
-24
-93
-12
97
189
298
216
36
-96
-188
-251
-292
-276
-201
-146
-133
-85
-6
-6
-6
27
29
97
150
170
79
-60
-58
-84
-43
18
17
43
27
-6
-78
-115
-82
-83
-76
-1
49
18
-2
8
69
105
75
167
271
314
340
206
42
-101
-198
-187
-167
-142
-130
-102
-64
-55
-52
-67
-74
-55
-51
-39
-40
-16
37
7
-37
7
17
21
77
105
127
115
80
73
32
-67
-122
-130
-80
28
56
31
8
53
58
-53
-97
-29
104
125
44
-16
-29
-6
17
52
-7
-44
45
46
-50
-105
-71
-16
-3
4
44
52
31
-17
-76
-80
-84
-76
-59
-33
25
42
37
21
-3
-9
-36
-28
-21
-46
-23
-35
-63
-31
5
54
149
208
201
176
142
72
-26
-34
-4
-21
-38
-104
-165
-128
-93
-102
-93
-108
-112
13
156
198
163
91
5
-35
-33
-64
-57
4
49
58
72
74
-10
-69
-95
-75
0
8
-29
-34
-57
-91
-90
-80
-59
-39
10
85
171
212
165
99
42
16
12
4
-17
-45
-82
-77
-75
-92
-62
-28
-18
-54
-62
-20
-6
1
78
137
107
122
125
73
7
-52
-94
-105
-100
-133
-120
-102
-58
-30
-58
-42
-19
7
38
88
105
83
20
-42
-31
-37
-39
-27
10
99
166
171
132
110
70
34
-17
-84
-93
-59
12
21
-4
-31
-99
-109
-97
-78
-41
-27
-24
-4
21
22
47
37
-13
-12
12
20
46
85
85
72
52
-7
-48
-52
-51
-41
-22
-20
-27
-22
-24
-23
-34
-42
-27
-4
23
19
29
52
46
29
48
67
52
7
-70
-106
-95
-73
-26
26
46
44
49
41
15
-39
-78
-77
-77
-50
-22
-10
30
57
55
65
70
27
-31
-68
-64
7
79
96
92
98
102
75
17
-41
-72
-117
-132
-86
-66
-29
15
41
84
107
79
-6
-61
-68
-42
-26
-47
-46
-47
-50
-21
2
-24
-31
-32
-38
-24
-22
2
3
16
60
94
130
121
90
72
42
-4
-46
-85
-120
-126
-100
-42
16
50
69
72
66
62
21
5
40
14
-28
-27
-8
9
13
10
-7
-55
-75
-54
-54
-50
-42
-19
24
36
27
22
11
-16
-32
-28
-24
-34
-33
-20
-67
-137
-160
-143
-107
-42
75
178
289
391
360
244
111
5
-25
-39
-66
-55
-21
-13
-22
-16
-14
-49
-132
-166
-127
-128
-132
-77
-36
-14
11
12
-10
17
27
4
1
-11
-9
-4
6
19
43
84
73
89
113
79
34
-34
-64
-76
-102
-126
-154
-157
-140
-103
-37
83
113
113
264
331
266
168
46
-87
-142
-84
-26
21
21
-10
-80
-127
-89
-52
-69
-95
-86
-54
-18
-10
-19
30
81
108
121
80
39
1
-15
-40
-89
-94
-78
-22
38
67
81
83
49
12
27
-21
-94
-117
-137
-147
-127
-91
-47
-19
36
162
190
161
143
84
48
-19
-99
-99
1
64
77
117
95
67
52
4
-49
-94
-162
-160
-89
-12
51
32
12
19
34
-5
-42
-57
-77
-59
-54
-44
-24
4
34
57
26
2
46
39
43
29
-11
19
67
82
-9
-90
-95
-107
-125
-132
-110
-67
29
98
92
104
142
160
92
14
4
-41
-36
37
49
116
150
122
164
129
54
-10
-125
-195
-223
-208
-147
-79
-58
-110
-108
-113
-97
-43
-35
-18
26
99
127
168
170
90
49
-27
-64
-28
-14
12
46
16
-70
-101
-176
-250
-144
-37
-36
-31
52
127
140
85
80
147
172
171
115
40
8
-17
-45
-82
-147
-122
-23
89
121
67
100
138
93
22
-1
19
68
53
-21
-75
-113
-156
-206
-138
-111
-135
-97
10
123
127
109
29
-31
-22
-31
-60
-130
-143
-123
-75
27
51
77
89
67
69
42
-21
-26
25
21
9
-21
-38
-30
-45
-61
-92
-78
-37
-13
-5
-19
12
110
135
89
95
62
-20
-49
16
105
79
57
64
17
11
4
42
59
17
-11
-117
-89
-1
-49
-57
7
61
-36
-231
-241
-100
-6
47
43
57
105
74
92
120
90
33
11
47
53
60
155
234
116
-37
-113
-120
-68
-132
-205
-141
-12
-12
-104
-105
-119
-105
-78
-60
43
108
90
102
60
-46
-46
-77
-132
-145
-262
-266
-127
-60
56
282
418
441
384
170
-4
-74
-134
-148
-180
-134
-1
70
104
124
74
-3
7
14
-42
-55
-22
-54
-87
-64
-14
32
44
110
153
109
7
-115
-133
-192
-252
-92
76
221
264
152
104
131
110
-74
-266
-268
-128
-101
-96
-24
-7
69
44
-51
-89
-126
-84
-87
-85
-1
54
97
251
385
314
226
54
-156
-240
-218
-149
-75
35
34
-5
34
94
127
81
-38
-122
-160
-224
-215
-198
-113
63
161
261
423
530
377
188
87
-64
-131
-270
-476
-408
-253
-228
-98
82
125
58
26
36
27
117
135
79
42
-79
-61
34
29
45
1
-4
51
34
14
17
41
-11
-123
-191
-169
-105
-125
-123
-34
26
-41
-138
-35
102
147
228
235
270
216
-48
-66
83
113
135
117
48
-37
-171
-211
-155
-153
-191
-112
32
42
-16
104
304
286
137
-99
-384
-516
-401
-208
11
223
277
219
84
97
99
51
155
150
106
183
178
2
-133
-183
-182
-302
-383
-206
-33
88
115
104
53
-46
-115
-101
-24
109
164
144
117
-34
-94
-58
35
133
193
127
-176
-328
-245
-124
29
163
286
306
244
125
-120
-240
-262
-128
74
34
16
-132
-441
-574
-498
-220
39
233
470
588
396
222
188
110
89
1
26
-23
-204
-100
12
-37
-133
-102
104
347
253
141
178
74
158
84
-270
-411
-267
-205
-287
-247
-83
55
40
86
120
35
-57
-181
-239
-192
-96
47
250
241
74
18
25
36
12
11
-46
-173
-284
-335
-323
-158
90
262
397
420
404
374
286
161
27
-147
-285
-238
-141
-163
-128
-73
-104
-22
32
31
-15
49
180
16
-166
-145
8
46
70
367
574
451
292
218
97
-109
-291
-313
-369
-492
-400
-156
-64
13
113
77
19
-82
-135
-105
-84
-7
67
65
26
-24
24
96
36
-11
11
0
-59
-148
-127
-65
-149
-182
-109
-5
87
115
243
258
90
117
223
263
126
-35
73
-6
-362
-486
-311
-144
-57
136
251
221
265
318
470
506
259
-85
-270
-175
-168
-201
-107
36
104
17
-6
-55
-162
-289
-413
-350
-339
-299
-34
183
289
337
323
299
64
-216
-283
-323
-229
24
278
491
502
204
-100
-91
-48
-165
-112
-52
-217
-345
-318
-168
-26
113
284
374
241
38
47
89
-33
-208
-256
-175
-46
67
209
346
301
82
-67
58
106
-46
-113
-170
-222
-189
-137
-115
-70
-26
-65
-89
-52
7
89
120
24
-242
-398
-281
-87
105
235
345
324
163
86
72
192
476
545
336
112
-12
-46
-243
-360
-223
-70
21
-6
-42
-51
-87
-149
-175
-181
-181
-175
-177
-234
-248
-152
-208
-258
-46
242
394
480
565
547
311
20
-133
-334
-327
-188
-174
-120
16
217
302
228
31
-63
-79
-145
-160
-133
-49
18
17
-113
-246
-235
-183
-78
77
153
142
110
17
127
276
276
353
342
256
113
-25
-157
-306
-348
-312
-251
-138
-10
26
70
-26
-212
-192
-77
-115
-163
-13
80
98
4
31
243
289
372
367
309
173
-49
-26
-44
-47
-57
-178
-195
-116
-38
-99
-133
-13
140
117
-9
-72
-240
-334
-291
-219
-138
-85
14
161
360
450
399
224
-31
-104
36
198
137
-18
-72
-126
-55
-9
-166
-256
-252
-188
-84
-84
-102
-91
-165
-239
-137
12
84
273
425
370
262
235
147
-2
-2
-27
13
151
104
-31
-64
-51
-90
-97
-92
-163
-156
-114
-122
-152
-128
-53
12
47
77
111
42
77
179
183
167
66
-61
-168
-238
-212
-118
-133
-222
-228
-205
-90
62
137
201
298
347
350
340
205
42
-14
-71
-150
-147
-15
14
-75
-97
-85
64
143
30
-8
-65
-154
-105
27
82
16
-19
-56
-60
24
-55
-122
-63
-81
-65
-14
-65
-132
-116
-220
-355
-329
-179
49
165
413
676
638
512
415
361
199
-27
-238
-388
-339
-218
-149
-100
-43
-75
-120
-65
-104
-183
-210
-283
-331
-223
-30
99
166
312
524
491
245
181
150
21
16
-19
-9
80
54
49
-44
-170
-213
-191
-118
-78
-117
-249
-238
-81
11
22
24
-17
-171
-244
-243
-242
-133
82
352
508
619
567
250
92
28
-110
-142
-168
-319
-384
-274
-181
-154
-64
24
89
211
205
101
79
50
-109
-158
-52
41
123
67
21
-61
-315
-287
3
208
398
490
443
314
112
6
-65
-255
-424
-417
-348
-249
-94
161
342
243
69
-211
-423
-338
-136
99
332
456
414
356
401
354
92
-95
-232
-307
-279
-281
-215
-189
-141
-104
-103
-62
-100
-224
-307
-208
-104
-70
33
149
120
-19
-65
-115
-140
53
259
412
634
768
629
452
323
-26
-289
-349
-471
-573
-458
-234
-82
70
184
181
77
-14
-8
-46
-162
-183
-155
-41
116
184
170
117
98
-14
-65
-118
-256
-221
-105
-100
-181
-92
3
153
364
473
521
239
-95
-248
-315
-336
-223
-37
111
234
196
211
232
203
112
-123
-210
-215
-201
-168
-125
-69
-19
68
14
-104
-233
-234
-152
-136
-31
66
143
167
84
-73
-70
29
-42
87
330
310
181
200
253
248
206
49
-64
-100
-162
-184
-179
-233
-223
-176
-137
-51
12
-50
-158
-90
14
7
25
140
212
241
414
432
202
-147
-550
-630
-407
-296
-226
-2
206
316
311
313
292
87
-175
-351
-460
-329
-34
203
550
915
993
593
125
-250
-602
-655
-450
-209
-120
-84
-17
92
216
135
-79
-218
-315
-365
-318
-205
-50
94
176
140
42
16
-26
-163
-260
-243
-130
94
331
510
610
521
303
132
16
-224
-405
-343
-301
-239
-37
191
231
58
-82
-59
-27
-153
-204
-117
143
308
245
223
163
151
79
-39
-89
-96
-43
-51
-73
-122
-121
-97
-213
-332
-399
-393
-317
-196
109
444
655
642
496
391
157
-96
-327
-440
-314
-151
4
152
233
251
197
85
-76
-189
-220
-266
-375
-430
-220
41
110
57
21
95
264
367
324
279
246
132
-100
-230
-190
-65
171
307
248
133
49
-99
-251
-243
-245
-280
-286
-391
-473
-349
-120
87
327
561
644
518
240
142
63
-15
19
-120
-169
-192
-240
-218
-242
-311
-355
-316
-261
-117
37
196
278
301
384
423
435
323
99
-86
-110
-153
-328
-389
-277
-157
-117
-56
46
115
125
31
-46
-87
-91
33
119
123
118
202
266
307
279
142
127
39
-104
-218
-306
-328
-441
-529
-517
-402
-163
93
363
597
760
783
524
320
147
-131
-208
-259
-272
-246
-249
-196
-198
-166
-157
-157
-163
-187
-152
-87
-26
-44
22
98
106
135
105
181
437
545
309
165
32
-140
-109
-218
-272
-216
-215
-165
-130
-65
-28
-109
-130
-24
109
186
72
-74
-230
-331
-179
30
177
270
436
615
587
432
282
200
111
16
-105
-210
-319
-461
-370
-272
-226
-18
146
158
83
-57
-204
-216
-209
-271
-251
-111
45
112
132
84
-70
-99
26
112
167
228
297
338
342
244
34
-89
-136
-207
-268
-254
-239
-243
-176
-178
-243
-227
-233
-163
-63
-8
201
410
536
561
476
346
138
-67
-229
-271
-268
-261
-80
104
215
273
167
59
-79
-231
-207
-174
-232
-344
-299
-245
-323
-260
-89
150
357
479
520
519
427
248
95
29
56
34
1
12
39
-19
21
161
137
-30
-196
-284
-292
-207
-225
-287
-263
-227
-192
-223
-281
-271
-238
-125
60
152
273
413
526
539
402
277
111
-64
-279
-400
-319
-290
-186
49
181
169
120
85
-1
-120
-201
-241
-238
-166
-39
87
183
277
395
403
220
40
38
130
150
69
24
14
-76
-268
-411
-351
-259
-153
2
181
302
135
49
88
-52
-47
-7
-57
2
84
155
113
7
-49
-56
-52
-80
-125
-125
-81
-119
-153
-120
-109
-81
-39
55
135
81
22
-10
-95
-115
-11
-55
-166
-208
-244
-64
137
187
227
246
299
324
195
-44
-132
-14
129
289
319
340
439
319
63
-92
-181
-345
-601
-657
-498
-304
-97
30
57
78
123
-34
-178
-127
69
377
444
433
461
342
109
-62
-89
-172
-230
-269
-360
-363
-337
-288
-164
12
152
200
188
143
43
-109
-147
-72
37
154
228
205
110
-33
-235
-307
-229
-21
119
127
224
243
143
14
-74
-87
-72
-117
-142
-85
-95
-121
-149
-138
-112
-54
12
27
109
170
124
-33
-195
-219
-29
166
346
587
639
640
514
148
-112
-148
-172
-195
-229
-284
-225
-172
-147
-90
-22
-36
-56
-52
-124
-137
-112
-82
-65
-69
-19
34
37
-15
-11
-5
-47
-49
-33
23
2
-57
-47
-74
-105
-117
-57
70
110
68
68
31
-78
-100
-94
5
239
399
498
506
423
306
111
-11
-41
-82
-150
-264
-404
-547
-605
-524
-479
-436
-181
122
345
523
668
734
599
476
373
157
7
-58
-64
-107
-187
-331
-450
-241
-54
-14
-36
-160
-193
-214
-231
-168
-86
-26
20
29
-11
-49
-12
42
61
71
-4
-22
-10
-78
-74
-41
-74
-68
-118
-234
-100
87
124
208
374
508
546
478
335
208
80
-32
-96
-115
-146
-224
-263
-296
-261
-195
-183
-179
-171
-160
-190
-220
-199
-113
-124
-133
2
79
170
250
235
273
442
638
640
579
479
291
152
-100
-261
-261
-323
-296
-320
-362
-332
-309
-251
-234
-200
-197
-166
-85
-39
9
76
170
228
264
206
108
82
127
118
-2
-46
-65
-115
-233
-366
-307
-186
-57
120
196
264
354
364
328
234
115
29
-70
-181
-239
-272
-213
-100
-80
-74
-52
6
77
85
113
166
134
68
64
73
88
75
26
-25
-56
-95
-132
-89
-91
-97
-50
-38
-33
-12
11
-6
-26
-55
-105
-164
-134
23
91
76
64
-19
-59
46
121
124
121
152
226
218
156
46
-125
-174
-115
-138
-165
-162
-215
-269
-299
-253
-203
-134
38
208
338
405
410
348
233
94
37
71
80
72
8
-64
-107
-92
-67
-136
-234
-259
-175
-108
-45
3
36
101
84
-7
-75
-125
-134
-70
-64
-128
-150
-147
-105
23
109
165
274
354
399
377
272
165
57
-123
-235
-188
-82
42
118
143
101
-15
-249
-395
-312
-253
-113
110
209
218
160
22
-77
-90
-55
4
52
102
89
38
-29
-113
-185
-184
-106
-74
-30
16
28
32
22
35
32
22
-1
-32
-24
-26
-7
9
16
33
27
17
-7
-46
-90
-105
-129
-176
-155
-93
12
122
172
228
272
294
304
273
211
160
129
12
-113
-238
-340
-356
-344
-256
-166
-77
-4
144
279
268
286
264
208
92
-106
-271
-312
-188
-108
-115
-107
-65
40
66
31
13
-37
-49
-31
-46
-50
50
173
260
301
228
147
82
2
-21
-22
6
2
-48
-82
-113
-125
-136
-125
-114
-118
-167
-259
-367
-424
-382
-292
-115
115
320
518
657
687
604
399
176
34
-122
-181
-137
-161
-157
-149
-138
-112
-113
-110
-77
-42
-21
1
-57
-166
-276
-320
-250
-196
-137
-82
-37
100
184
222
273
245
236
291
334
396
430
296
95
-22
37
94
-65
-174
-197
-191
-205
-270
-261
-220
-120
-82
-61
-21
-80
-89
-92
-117
-155
-176
-90
-39
-16
69
183
264
302
295
233
157
55
-7
-1
-1
-77
-155
-150
-125
-91
-78
-44
-19
-29
-22
-24
-22
2
44
64
69
59
38
28
11
11
22
15
-3
-19
-26
-17
-23
-34
-23
-6
22
33
36
34
2
-14
-3
-4
-34
-62
-90
-102
-74
-60
-32
2
19
84
135
135
125
121
130
113
92
47
9
16
-9
-54
-80
-72
-41
-40
-65
-80
-90
-90
-67
-38
-12
-15
-23
-18
-24
-43
-92
-157
-171
-140
-117
-78
1
110
202
236
236
221
193
166
163
165
148
85
2
-34
-51
-47
-75
-160
-201
-190
-178
-181
-165
-136
-71
7
57
81
74
71
47
2
-49
-84
-32
60
152
197
188
132
34
4
-35
-121
-135
-86
-5
107
154
127
107
47
-22
-82
-132
-133
-107
-107
-136
-117
-91
-93
-125
-137
-117
-112
-46
67
135
160
167
136
133
155
93
44
89
109
72
14
-90
-164
-174
-152
-81
-1
95
190
228
132
-51
-206
-293
-253
-171
-102
-13
80
143
138
98
87
118
135
118
103
130
142
98
-16
-101
-127
-166
-119
-114
-171
-155
-131
-71
2
68
104
133
160
157
120
16
-32
-22
-61
-89
-63
-53
-65
-90
-107
-98
-111
-143
-143
-120
-123
-122
-88
-37
72
221
327
377
413
396
279
105
-47
-83
-103
-123
-124
-175
-173
-99
-26
-3
19
51
88
123
115
92
42
1
-29
-88
-138
-137
-152
-177
-134
-82
-27
30
51
52
37
7
-40
-107
-149
-96
-20
54
177
212
140
62
-85
-210
-201
-175
-128
-5
145
294
369
313
249
173
23
-91
-170
-228
-200
-125
-102
-87
-4
56
93
101
47
37
10
-70
-147
-195
-118
-55
-28
24
79
137
142
157
120
44
-6
-54
-35
-9
-26
14
65
99
126
107
68
-52
-149
-130
-122
-102
-95
-102
-53
-9
-6
-8
-24
-42
-38
-17
-11
-57
-69
-47
-49
-47
-59
-12
27
21
66
60
1
10
80
129
133
111
127
180
193
209
176
42
-43
-97
-160
-167
-138
-113
-115
-68
-33
-44
-3
-6
-34
-84
-128
-132
-178
-209
-109
119
273
304
253
173
142
87
54
4
-17
75
93
31
-41
-93
-110
-76
-46
-32
8
-18
-27
-42
-82
-79
-82
-85
-85
-102
-158
-188
-185
-151
-59
49
170
266
294
254
163
79
54
51
54
41
5
-18
-100
-149
-104
-90
-122
-90
-47
-44
-24
-42
-70
-87
-107
-131
-149
-144
-85
51
157
219
302
359
336
243
124
50
67
62
25
-35
-92
-101
-117
-54
15
31
21
-8
-35
-110
-137
-87
-59
-61
-53
-31
-36
-74
-75
-26
1
-9
-14
-27
-29
-7
-6
-4
19
36
32
17
6
15
8
-16
-34
-42
-27
-9
7
44
84
92
79
47
-5
-42
-11
19
2
-12
-31
-40
-37
-37
-46
-74
-87
-46
19
52
49
60
65
39
18
-32
-44
7
127
256
254
198
111
72
28
-39
-4
-32
-70
-101
-181
-165
-125
-100
-60
-34
-32
-48
-74
-77
-57
-44
-26
-14
-11
-15
-23
-17
-27
-12
22
20
38
54
57
72
87
102
77
31
-2
-15
-32
-38
-24
-18
2
-3
-26
-44
-68
-79
-120
-142
-100
-85
-75
11
134
258
342
334
277
239
168
54
-40
-111
-129
-130
-120
-112
-123
-101
-84
-65
-51
-50
-40
-42
-50
-45
-29
-32
-27
-19
-12
16
17
16
16
9
16
18
10
3
2
14
19
12
13
13
9
11
16
19
19
20
17
4
-2
-1
-6
-7
-5
-3
2
-4
-1
4
1
0
2
14
14
13
14
11
9
10
11
0
-2
3
3
-4
-9
-4
-1
-4
-3
-6
-12
-14
-19
-11
-12
-14
-8
-7
-11
-11
-1
-6
-11
-10
-12
-5
-8
-12
-8
-10
-3
4
4
9
9
8
7
6
1
2
6
1
-6
-6
-12
-4
10
5
3
0
-6
1
2
0
3
6
7
3
0
-1
-7
-7
-2
-7
-19
-17
0
3
2
4
4
4
8
11
12
9
7
0
-4
3
-7
-1
2
-4
-3
-7
-9
-12
-3
-1
-5
-6
-9
-12
-16
-14
-11
-6
4
12
17
32
38
21
11
11
11
11
11
15
14
5
-5
-14
-16
-2
2
14
17
-2
-12
-11
-8
-21
-26
-19
-20
-16
-6
-2
0
14
12
4
4
-7
-14
-16
-11
-1
2
4
9
12
13
14
10
6
-3
-4
-6
-20
-36
-42
-32
-18
-11
-14
-18
-10
12
16
11
21
7
-6
-8
-11
-13
-5
-2
-32
-42
-37
-60
-113
-120
-40
21
75
130
148
141
134
142
97
42
26
18
-1
-31
-28
-32
-27
-9
-24
-42
-61
-65
-51
-41
-31
-25
-19
-30
-50
-74
-92
-57
-29
-1
44
62
60
72
105
90
51
27
8
0
16
19
-11
-12
-21
-32
-36
-48
-44
-43
-36
-29
-22
-14
-3
1
-8
-21
-31
-16
3
7
1
-2
11
10
-4
5
17
27
29
11
4
7
14
16
4
13
23
3
-2
14
24
17
6
-6
-26
-29
-21
-9
2
-3
-9
-1
5
-4
-1
14
16
10
6
-4
-10
3
10
-6
-22
-25
-17
-5
-6
-22
-44
-55
-45
-51
-40
-6
-3
9
21
29
62
79
62
21
8
12
3
13
22
14
2
-4
-9
-16
-21
-18
-14
-17
-18
-7
9
16
12
3
-9
-7
11
11
-6
-4
17
10
-3
-9
-20
-15
-14
-5
6
16
16
-2
2
8
16
2
-14
-6
-11
-14
-12
-9
-2
2
-5
-12
-11
-14
-22
-10
-1
16
38
6
-21
-34
-26
17
24
37
41
14
-5
-17
-1
9
8
11
24
41
29
1
-10
-17
-36
-37
-35
-43
-29
-18
-9
-3
9
25
24
29
23
0
-17
-16
-10
-3
0
-9
-5
13
26
21
7
-2
14
16
0
-1
-9
-13
-7
-2
-27
-37
-24
-26
-9
1
-1
9
15
14
6
-6
-6
2
1
1
2
12
15
11
23
26
9
-2
-5
-20
-28
-21
-17
-3
1
-23
-17
1
11
7
-2
-7
-20
-6
4
6
2
1
-1
-11
-6
-14
4
11
-12
-4
-7
-22
-25
-11
7
10
8
6
4
4
6
4
-4
-4
-7
-21
-19
-11
-12
-20
-22
-15
-14
-4
9
19
17
-1
-2
1
12
13
7
10
-6
-13
-3
3
9
16
12
1
3
6
2
3
6
11
7
19
28
27
29
4
-11
-30
-56
-30
1
7
-31
-59
-43
-17
14
36
27
14
14
13
27
28
28
27
11
0
-14
-19
-15
-12
-16
-35
-49
-41
-32
-6
27
52
70
61
40
14
2
-16
-27
-32
-43
-28
-31
-37
-34
-31
-21
-16
0
16
23
14
14
15
1
-12
-28
4
16
-1
1
4
14
14
16
2
-2
4
-4
8
2
-1
-4
-19
-7
-1
6
11
5
2
2
7
2
-13
-23
-7
-9
-21
-9
-4
7
12
-1
-21
-16
12
54
90
79
21
-47
-70
-46
-24
-6
-1
1
27
44
39
14
-14
-43
-89
-135
-95
17
95
148
165
133
123
85
-26
-81
-107
-133
-107
-57
-8
7
4
34
84
125
171
195
170
127
52
-79
-193
-208
-198
-170
-89
-30
-17
-27
-36
-46
-63
-79
-82
-59
-28
19
60
65
52
46
20
-26
-30
-14
23
70
59
13
-14
-6
11
31
43
39
18
-1
-7
-11
-1
8
2
-10
-3
16
38
44
28
0
-19
-16
-12
-20
-47
-56
-46
-49
-62
-102
-122
-81
-62
-70
-52
-17
47
100
132
92
-10
3
91
140
143
171
237
264
276
253
133
28
-42
-165
-220
-201
-195
-221
-256
-262
-213
-145
-89
-51
-79
-60
45
102
78
-30
-145
-127
-24
115
225
225
237
303
259
148
128
85
-10
-37
-26
-55
-38
-11
-51
-53
-79
-138
-216
-293
-312
-302
-273
-213
-62
90
198
306
345
365
371
325
233
71
-91
-190
-208
-152
-133
-112
-69
-67
-90
-110
-92
-85
-65
-42
-35
-24
-21
-9
4
12
17
11
-9
-10
6
7
4
10
34
37
34
33
43
42
31
25
17
20
28
39
50
54
18
-12
-20
-2
7
-7
-3
-2
9
17
19
17
21
19
-1
-14
-19
8
13
5
12
-7
-2
15
20
11
-9
-9
-4
9
-4
-26
-27
-13
4
-14
-24
-27
-26
-19
-20
-16
-2
10
11
10
-4
-1
10
-17
-40
-22
-11
-1
31
14
-12
-11
-21
-13
1
7
8
4
14
9
-34
-53
-48
-74
-103
-69
-4
24
71
125
134
99
60
55
37
19
29
20
-15
-22
-49
-76
-65
-62
-60
-47
-7
2
-4
39
71
79
92
103
88
54
36
21
-11
-34
-55
-59
-52
-65
-74
-62
-41
-32
-14
-5
-11
-11
-40
-44
-27
1
16
-6
-14
-12
-21
-28
-13
-12
-23
-17
-13
12
37
50
59
42
27
31
29
15
8
5
3
9
7
2
-9
-10
3
1
-7
-19
-37
-42
-24
2
29
39
40
38
-5
-17
-9
-12
-12
-15
0
3
6
12
1
-11
-9
-7
-12
-1
8
15
13
-1
-18
-44
-56
-54
-55
-43
-23
2
42
97
134
151
143
89
4
-46
-37
-54
-68
-44
-40
-51
-54
-63
-104
-165
-205
-215
-172
-79
21
112
168
213
237
238
244
203
135
61
4
-34
-68
-86
-108
-124
-137
-128
-92
-55
-44
-46
-29
-24
-28
-43
-42
-21
-9
12
31
82
145
128
87
76
37
21
7
-15
-14
-22
-33
-44
-44
-51
-28
-1
-8
-4
-4
-22
-27
-14
-6
-10
-2
-9
-16
1
6
13
2
-4
-7
-21
-25
-23
9
37
32
24
19
21
16
1
-11
7
-4
-21
-22
-17
3
-12
-3
4
-12
-15
-21
-7
-5
1
20
39
42
11
-8
-12
-5
-1
-13
14
42
28
26
24
3
-9
-13
-10
-16
-24
-8
2
6
0
-2
1
-12
-13
-11
-11
4
11
9
-1
-3
8
3
-1
1
-6
-11
-14
-2
-1
-17
-11
-3
-2
6
15
18
0
-3
6
-5
-9
-1
2
-12
-14
-11
-4
2
-5
1
1
-2
-1
2
6
6
2
1
4
1
3
1
-12
-12
-7
9
5
-27
-21
-2
6
27
29
7
-8
-2
10
14
-4
-16
-14
-7
10
20
12
-2
1
-8
-7
-1
-2
-3
-14
-17
-6
1
-3
-5
-11
-12
-12
-10
-3
-6
-9
-12
-6
7
12
7
-2
7
9
6
4
-3
-5
-12
-11
-3
7
8
1
1
-4
6
6
5
21
16
1
-6
2
-4
-18
-20
-12
-17
-27
-26
-24
-9
-2
9
19
5
2
2
-1
9
30
36
21
19
17
1
5
-4
-7
2
-3
-12
-23
-4
7
-2
7
0
-4
6
1
-4
-6
-15
-16
-12
-2
16
27
22
12
6
-7
-14
-22
-22
-1
2
-10
-31
-36
-11
14
26
14
4
-7
-6
-6
-1
16
10
0
-2
2
-3
-6
1
-4
-4
7
16
19
12
1
-7
-14
-2
0
-7
-4
-19
-27
-7
9
7
11
11
0
6
6
-4
-10
-5
-2
-21
-14
-4
-13
-12
-7
-2
-5
-12
-4
21
27
21
22
17
12
-2
-5
6
1
2
4
-11
-10
-2
-13
-13
-13
-24
-32
-31
-20
-9
5
18
10
9
25
21
19
-1
-12
-1
-3
11
4
-12
-7
7
5
-7
0
11
17
2
-6
-2
-4
1
4
1
-4
-12
-17
-16
-12
-7
4
8
-9
-19
-12
3
26
48
27
-28
-131
-300
-378
-315
-195
-62
78
221
319
347
372
357
194
39
-44
-97
-63
28
133
197
200
205
154
42
3
-63
-145
-122
-102
-97
-82
-93
-123
-136
-132
-110
-92
-92
-54
-52
-69
-84
-77
-51
-44
-16
-8
-1
11
10
9
6
-11
-17
-24
-46
-16
26
40
60
75
75
37
22
42
42
54
36
12
-16
-62
-80
-84
-54
-24
-49
-165
-222
-174
-127
-94
-46
110
239
334
379
293
309
362
344
312
273
223
158
93
-13
-155
-306
-443
-493
-443
-329
-200
-103
-62
-68
-75
-79
-57
-12
4
14
26
28
26
7
-6
-2
13
19
9
24
30
27
36
26
24
28
27
35
36
20
4
6
10
17
31
23
-1
-1
6
-2
-17
-19
-10
-17
-21
-28
-18
-2
16
43
36
10
2
18
24
57
88
55
4
-48
-77
-59
9
54
69
72
59
32
-6
-21
-47
-87
-99
-100
-51
11
32
17
-4
-12
-29
-41
-39
-17
6
12
1
-4
-2
-21
-14
27
44
23
14
17
22
21
5
-10
-35
-34
-5
1
-12
-16
5
41
56
44
28
-6
-9
1
-13
-21
-50
-74
-78
-72
-33
-31
-28
20
59
90
80
99
120
95
93
75
72
99
112
70
-20
-102
-123
-115
-128
-130
-125
-94
-67
-49
-28
-50
-55
-36
-36
-41
-17
7
16
39
54
40
15
-6
-6
9
19
12
5
14
27
35
37
46
33
20
16
-3
-37
-38
-17
-27
-24
-18
-15
-13
-9
28
51
46
47
55
47
29
6
-16
-21
-30
-31
-29
-33
-16
-10
-6
-10
-28
-19
-20
-23
-19
-19
32
65
74
60
10
-12
-24
-17
-18
-15
-15
-29
-16
-7
2
-5
-6
-12
-26
-21
-28
-30
-21
1
37
69
47
-32
-70
-34
-20
-85
-198
-256
-170
-80
-15
84
177
265
273
268
284
248
143
1
-166
-305
-278
-184
-131
-16
113
149
148
235
350
363
331
245
110
-41
-143
-180
-207
-231
-265
-286
-268
-197
-140
-113
-106
-84
-42
-32
-24
-61
-73
-32
-2
57
86
104
117
112
115
111
94
41
7
-12
-23
-19
-32
-27
-31
-24
-11
-19
-6
-7
-47
-66
-49
-74
-109
-75
-88
-138
-121
-113
-114
-63
65
82
20
109
230
365
397
282
188
125
144
170
148
77
-33
-62
-12
79
90
14
-100
-185
-171
-165
-200
-211
-234
-257
-188
-110
-69
-28
35
79
80
76
72
78
38
-11
-34
-53
-42
-25
-9
-7
-13
-12
-6
3
6
17
27
18
20
31
9
6
26
24
25
17
31
32
10
9
-5
-9
-12
-10
6
6
-1
-12
-6
2
8
0
4
12
-7
-9
2
2
-21
-33
-16
-4
-16
-9
1
-12
1
1
-24
-23
-19
17
59
79
90
65
40
12
-26
-26
-35
-59
-52
-42
-37
-29
-42
-20
-33
-85
-37
32
60
54
4
5
23
-44
-128
-93
60
157
215
274
299
272
171
76
-51
-208
-263
-238
-224
-162
-108
-91
-58
-62
-6
55
49
42
4
1
11
0
9
7
-14
-25
-4
19
6
-5
-7
-9
-8
-10
2
10
-2
-4
6
10
24
13
-1
16
11
-2
-7
-52
-108
-74
-14
-17
-26
-8
23
68
118
163
192
153
118
123
97
70
-5
-147
-239
-208
-155
-116
-58
-39
-37
7
36
32
20
14
-6
-43
-33
-8
8
4
14
63
46
37
36
14
17
1
9
12
-16
-18
2
-12
-46
-53
-41
-8
24
46
50
47
30
8
11
8
23
29
-26
-100
-145
-154
-140
-73
25
116
175
167
113
51
-7
-86
-103
-81
-69
-55
-28
41
60
59
49
34
32
36
13
-37
-27
-14
-15
-15
-64
-89
-45
-20
2
36
46
65
77
66
50
36
27
19
-10
-29
-34
-31
3
9
-11
-29
-7
5
-37
-41
-54
-93
-98
-36
28
39
71
76
46
23
-4
-12
-38
-37
24
56
55
42
16
-18
-28
-35
-55
-51
-39
-24
2
-4
-21
19
65
95
86
15
-52
-68
-29
-9
-23
-10
30
10
-18
-2
4
-4
-52
-80
-61
-55
-57
-23
-6
-11
24
87
131
123
116
110
76
14
-50
-91
-70
-20
-15
-69
-126
-75
-6
14
29
26
9
-13
-8
-9
-36
-32
6
40
84
116
94
37
6
26
16
-13
-21
-44
-84
-104
-92
-69
-62
-89
-57
54
125
133
124
85
27
-74
-150
-117
-59
-14
19
53
96
123
123
115
117
81
-4
-105
-173
-196
-192
-159
-123
-56
31
63
95
104
44
22
27
32
29
22
84
118
56
4
-24
-87
-128
-125
-135
-94
12
75
84
118
153
152
162
105
2
-40
-51
-81
-97
-127
-112
-41
-60
-80
-92
-71
6
47
84
85
71
64
49
10
-27
-30
-66
-108
-66
-21
-19
2
44
83
50
2
-26
-58
-72
-94
-87
-79
-71
-47
-23
52
145
185
227
256
213
132
43
-29
-110
-157
-135
-127
-138
-95
-44
-20
15
59
92
74
31
-40
-78
-77
-82
-48
-4
28
27
33
29
47
112
117
89
34
16
-19
-68
-46
-8
9
17
9
-32
-57
-88
-94
-104
-114
-79
-38
4
-5
-25
-32
-8
19
36
65
36
57
117
127
125
75
6
-64
-114
-92
-60
-45
-7
0
36
83
52
4
-21
-1
16
-21
-33
2
11
-21
-62
-48
-7
6
16
28
78
122
108
67
22
-31
-95
-118
-105
-53
34
48
40
54
85
102
47
-7
-58
-78
-81
-93
-73
-76
-59
-3
28
53
49
18
-24
-77
-126
-160
-116
-53
-9
102
201
228
228
210
181
138
61
-76
-216
-229
-143
-112
-107
-106
-102
-94
-61
11
41
80
104
120
139
123
97
53
32
18
-16
-47
-66
-79
-97
-110
-108
-117
-140
-132
-112
-30
73
115
137
145
158
162
133
68
15
-7
-30
-29
-46
-95
-119
-93
-44
7
21
27
46
17
5
6
-3
1
-8
-17
-29
-8
11
2
13
7
-10
11
1
-85
-159
-163
-72
42
107
118
154
152
129
158
89
-14
-152
-278
-200
2
115
152
196
211
198
97
10
-85
-188
-211
-191
-107
-57
-17
17
-1
-29
-74
-138
-130
-47
-16
58
99
57
57
38
19
10
-26
-60
-36
2
-11
10
43
45
53
37
11
-3
-31
-49
-74
-89
-72
-55
-21
8
32
94
143
150
150
115
75
53
9
-52
-103
-115
-95
-54
-17
-13
-6
11
5
-11
-44
-79
-59
-5
12
19
56
78
65
80
112
103
59
-2
-55
-97
-113
-109
-94
-64
-27
17
17
-42
-27
21
3
-26
-29
17
-4
-4
70
74
85
76
-2
-37
2
55
66
27
-19
-72
-108
-84
-65
-109
-137
-37
91
155
188
158
115
42
-44
-60
-81
-103
-84
-45
3
54
56
30
41
42
17
-28
-112
-130
-70
-60
-27
30
41
21
4
-17
-72
-87
-75
-91
-72
-27
29
85
151
189
160
116
62
44
27
-67
-138
-82
6
47
82
102
65
19
-11
-9
-6
-31
-34
-70
-134
-150
-134
-105
-59
-1
53
60
29
-10
9
138
200
165
134
100
62
2
-67
-120
-188
-249
-176
-126
-82
59
97
115
117
67
6
-37
-12
-19
-21
22
62
64
72
88
76
42
-29
-104
-154
-147
-130
-100
-49
-54
-58
-54
-74
-84
0
104
126
177
200
133
100
95
19
-55
-52
-97
-134
-84
-29
-27
-24
53
89
109
149
137
117
72
7
-58
-92
-94
-108
-123
-103
-33
2
-13
-51
3
74
28
39
57
22
-14
-31
-4
9
-1
-32
-58
-82
-74
-34
-27
-11
32
66
64
54
55
16
-58
-120
-120
-78
-50
-34
-57
-76
2
57
99
157
121
116
155
119
62
24
-29
-66
-74
-77
-57
-47
-85
-130
-137
-126
-49
47
99
136
134
140
95
40
29
2
-10
-11
-43
-92
-89
-31
5
-90
-178
-121
-6
78
113
128
174
208
165
121
71
19
-41
-108
-106
-94
-96
-111
-130
-125
-103
-92
-122
-134
-16
96
108
89
67
54
14
13
10
-16
-23
-15
27
21
14
48
62
44
29
4
-35
-29
-68
-165
-166
-69
30
136
182
167
150
108
66
-24
-92
-117
-146
-91
6
46
46
36
-1
-54
-120
-134
1
142
152
146
137
97
46
-32
-105
-130
-116
-110
-82
-69
-89
-57
-14
-7
13
14
-33
-90
-67
42
85
125
187
153
110
84
39
-32
-78
-71
-63
-58
-81
-110
-118
-77
-14
-3
2
16
15
2
80
158
143
135
82
39
4
-43
-59
-73
-70
-77
-30
46
60
65
71
72
58
14
-57
-118
-122
-105
-82
-55
-53
-33
-3
7
26
43
22
-12
-28
-57
-77
-12
42
43
48
35
20
28
47
1
-54
-27
-21
-10
34
64
71
55
44
15
-34
-78
-47
-19
-70
-99
-133
-88
29
107
160
178
178
140
63
13
-13
-53
-73
-60
-59
-38
-44
-60
-64
-104
-114
-137
-138
-77
-50
-63
19
119
97
68
64
115
152
175
229
189
120
34
-52
-109
-175
-223
-230
-231
-140
-8
48
117
148
142
93
42
16
-36
-45
-57
-74
-65
-38
-19
-21
-4
-17
-63
-44
-12
22
105
132
152
157
116
90
31
-37
-115
-168
-190
-153
-37
21
35
12
-12
1
-8
2
6
12
37
43
22
-36
-89
-115
-99
-54
-9
62
87
76
84
94
110
88
59
52
47
19
-43
-65
-57
-64
-95
-115
-83
-69
-88
-75
-31
-1
-2
-5
45
105
150
162
107
81
52
8
12
-12
-76
-152
-159
-69
-11
19
57
41
18
11
34
42
14
32
4
-36
-37
-44
-30
-37
-98
-135
-104
-67
22
74
90
97
58
67
65
59
31
-42
-36
36
62
62
75
60
19
-10
-55
-122
-130
-89
-65
-27
28
34
27
25
-12
-27
-22
-29
-38
-38
-25
-24
-21
-24
-45
-66
-63
-37
-11
16
-38
-158
-193
-72
116
226
264
304
301
244
182
114
64
-6
-83
-107
-102
-120
-151
-144
-105
-58
-21
-9
-9
-12
-12
20
46
7
-24
-32
-34
-4
9
7
-9
-21
1
-2
-27
-63
-75
-52
-18
2
-9
-5
4
12
18
4
16
51
47
27
31
54
68
30
-41
-100
-62
2
26
20
-20
-3
35
37
35
36
33
7
-29
-4
36
-4
-30
-28
-59
-137
-163
-28
64
97
84
-49
-70
27
89
104
83
83
104
51
-18
-40
-68
-55
-55
-99
-84
-32
16
65
97
100
59
24
14
-29
-69
-85
-76
-19
0
-111
-268
-225
-52
31
121
173
165
171
186
148
16
-80
-80
-36
-24
-51
-50
-27
-42
-37
-12
-9
-31
-122
-205
-235
-159
21
143
201
230
251
244
217
151
11
-58
-69
-62
-45
-51
-16
39
70
45
-6
-57
-115
-158
-164
-149
-171
-138
-58
-29
7
30
60
105
112
80
-14
-83
-115
-129
-76
-12
80
191
228
212
133
-5
-141
-198
-127
-34
34
104
123
97
62
-6
-66
-68
-85
-117
-107
-34
60
101
136
140
107
39
-39
-104
-219
-226
-84
36
90
62
55
112
154
130
37
-13
-73
-123
-106
-112
-100
-66
-55
-68
-59
14
125
167
147
143
78
-20
-117
-137
-75
-77
-37
1
2
-2
21
84
45
38
73
64
32
-26
-63
-135
-131
-38
-16
-6
48
110
128
101
60
7
-21
-26
-6
-7
-64
-73
-52
-37
-68
-135
-62
26
-38
-81
-70
16
116
118
109
75
98
159
155
82
9
30
39
-11
-24
-22
-55
-47
-11
-36
-44
-22
-33
-53
-80
-77
-73
-85
-57
-46
-60
-73
-75
-47
-1
31
49
42
7
-23
-36
-29
12
63
84
98
107
73
27
-9
-53
-48
-24
-42
-49
-31
-18
0
39
95
151
168
145
75
-12
-94
-140
-150
-202
-206
-105
-2
55
105
131
73
28
46
64
34
6
-8
-33
-28
-26
-59
-96
-69
10
71
77
43
-8
-44
-41
-50
-39
-13
-2
37
99
91
-28
-40
57
124
211
247
217
124
23
-2
-75
-191
-220
-166
-134
-68
5
-5
-17
-29
-31
-62
-103
-93
-76
-32
29
77
64
41
32
6
-7
2
-1
-17
-5
-13
-22
-41
-35
-16
2
37
12
-10
-8
-17
-32
-22
6
9
2
-14
-16
-1
-30
-37
0
22
59
93
89
56
11
-46
-102
-167
-173
-80
-39
-28
67
151
195
221
170
93
51
55
55
-11
-112
-142
-109
-69
24
107
145
143
98
70
25
-59
-147
-168
-118
-121
-119
-79
-54
-57
-87
-85
-41
27
23
0
29
49
60
95
102
53
-4
-27
-2
3
14
-19
-117
-131
-94
-74
10
120
141
123
92
14
-115
-146
-39
38
69
71
112
139
122
105
73
60
56
110
150
83
-33
-76
-84
-140
-188
-301
-369
-253
-79
49
138
159
108
57
16
3
-23
-22
-32
-54
2
26
62
63
16
19
12
-7
-40
-66
-82
-54
-26
-31
-17
0
10
-9
5
34
41
37
7
-12
-43
-54
-31
-12
-9
-17
-23
-74
-107
-26
100
171
180
143
78
57
44
-40
-64
-53
-64
37
132
129
137
112
51
-12
-57
-54
-97
-102
-46
-62
-80
-38
12
-2
-34
-72
-122
-124
-118
-54
39
73
89
65
49
46
16
11
-16
-45
-44
-27
-44
-63
-21
-18
-7
27
39
42
14
-17
-63
-24
51
44
73
114
97
49
44
48
24
21
8
-16
-50
-78
-75
-78
-67
-27
-21
-49
-51
-42
-19
17
44
79
100
85
81
74
19
-21
-27
-37
-36
-34
-51
-33
-32
-41
-10
-7
-9
12
29
19
15
4
-14
-26
-47
-39
-57
-94
-104
-60
-9
22
94
125
152
165
136
87
20
-7
-42
-63
-40
-22
-35
-53
-46
-33
-24
-30
-32
-68
-90
-59
-29
11
42
68
50
14
44
39
-22
-42
22
64
32
29
11
-21
-15
20
1
-69
-96
-122
-101
-62
-43
-21
30
120
151
158
104
8
-40
-24
9
-85
-162
-54
19
27
71
87
97
120
107
36
-4
-49
-81
-36
-48
-85
-69
-45
-14
12
8
-18
11
55
46
6
-44
-37
-11
-19
-29
-39
-52
-77
-72
-33
23
69
89
111
125
123
99
47
-49
-88
-74
-85
-57
-54
-41
-9
-16
-19
-27
-24
-28
-16
-26
-46
-19
6
22
4
-30
-70
-88
-43
-1
23
16
-41
-75
-21
76
108
127
232
354
360
284
171
27
-84
-120
-121
-185
-230
-229
-233
-170
-91
-46
-31
-37
-51
-102
-120
-53
23
106
223
302
324
266
201
171
78
-73
-166
-171
-141
-115
-90
-67
-102
-103
-104
-98
-46
-19
2
11
26
34
60
62
14
-2
0
12
11
-17
-33
-47
-67
-82
-70
-17
12
22
49
68
75
27
-35
-83
-95
-33
2
36
126
178
211
214
151
60
-31
-55
-34
-42
-84
-86
-104
-142
-143
-179
-187
-113
-41
-22
32
119
139
127
119
128
105
59
-11
-9
21
-19
6
-4
-16
20
26
-9
17
123
101
47
11
-33
-64
-95
-67
-42
-37
-59
-114
-145
-148
-100
-37
-19
-32
-30
-1
21
22
31
49
40
-20
-22
44
122
171
151
123
105
74
-14
-94
-130
-153
-124
-85
-44
-1
9
-44
-103
-124
-143
-122
-82
-36
11
81
190
236
248
253
232
174
125
102
47
-22
-69
-77
-102
-122
-180
-304
-421
-468
-339
-97
133
308
399
439
430
309
97
-73
-152
-126
-47
2
50
27
-13
-14
-13
-10
-40
-91
-123
-93
-79
-155
-249
-239
-151
-84
-6
48
94
158
217
226
143
48
11
32
-14
-95
-99
-26
102
169
158
145
115
34
-35
-81
-124
-205
-239
-175
-186
-198
-125
-64
25
138
216
214
140
103
32
-42
-51
-44
-6
70
119
98
91
67
51
99
105
45
-49
-134
-204
-239
-223
-202
-184
-133
-94
-113
-76
-30
-29
57
148
217
279
281
280
246
206
133
7
-78
-113
-123
-132
-89
-83
-141
-138
-78
8
52
82
107
82
26
-42
-115
-120
-32
32
96
195
201
92
-37
-92
-102
-105
-93
-85
-105
-171
-195
-92
16
54
70
101
198
235
112
-48
-172
-223
-193
-159
-87
39
123
155
149
110
34
-8
-4
-22
-18
21
48
37
25
10
-39
-51
-40
-34
-11
3
5
6
9
-21
-107
-217
-250
-195
-100
14
110
246
364
363
205
-42
-270
-425
-480
-490
-369
-55
264
420
458
450
429
372
245
148
185
271
269
256
124
-52
-134
-244
-374
-384
-285
-229
-148
-140
-221
-241
-125
-42
-65
-15
-24
-63
-96
-64
25
46
123
175
176
185
133
51
-24
-52
-19
-6
-12
-9
-35
-39
-41
-40
-32
-51
-34
-32
-59
-110
-172
-181
-209
-254
-166
-52
20
142
277
374
407
433
436
327
214
148
-2
-150
-240
-246
-162
-155
-162
-188
-171
-114
-153
-181
-97
64
173
207
212
287
326
266
273
201
33
-74
-135
-199
-254
-288
-255
-180
-153
-133
-123
-132
-162
-195
-183
-73
57
128
155
107
61
-15
-155
-196
-130
-17
156
334
465
505
472
324
110
31
14
-14
-85
-133
-73
-79
-190
-267
-277
-297
-308
-278
-229
-218
-204
-115
-12
161
338
399
413
422
340
209
123
16
-29
-25
-94
-195
-279
-283
-233
-217
-236
-237
-199
-138
-37
102
186
253
335
313
357
359
277
296
251
116
1
-52
-208
-304
-235
-189
-155
-147
-132
-107
-71
-62
-108
-171
-254
-297
-428
-642
-518
-203
68
327
485
721
844
721
461
234
188
203
196
-12
-175
-215
-261
-254
-262
-241
-231
-238
-228
-194
-134
-91
-54
29
82
88
82
32
27
67
50
-13
-62
-38
31
11
31
65
-43
-82
-80
-137
-44
60
53
146
224
166
6
-140
-110
-19
-13
46
232
394
471
527
492
365
241
-1
-210
-334
-397
-367
-350
-281
-246
-217
-203
-183
-137
-101
-64
-75
-56
-59
-51
-24
4
33
21
18
37
65
57
31
27
24
29
36
-1
-10
2
6
11
2
50
85
82
86
65
34
-31
-63
-27
34
82
77
85
125
150
97
1
-56
-97
-85
-18
2
-13
-51
-54
-19
-8
-17
-45
-39
-29
-34
-59
-44
16
34
37
36
27
26
29
7
-32
-46
-9
22
40
51
12
-17
-37
-33
-33
-14
20
-1
-1
-2
-2
-1
-3
-11
-36
-41
-42
-9
6
3
25
24
11
-3
0
-17
-38
-42
-82
-82
-22
42
115
142
123
100
45
-25
-70
-74
-73
-70
-36
-33
-61
-51
-64
-97
-73
-16
26
45
70
89
93
113
101
86
93
59
0
-58
-75
-97
-105
-21
59
85
97
41
8
44
17
9
45
55
49
25
0
-62
-93
-90
-90
-42
-19
-27
-36
-69
-125
-130
-97
-36
42
82
89
47
32
13
-52
-131
-174
-121
-58
3
108
202
239
208
155
104
3
-128
-163
-207
-249
-153
-71
1
53
51
96
168
155
80
26
-85
-111
-63
-69
-29
36
166
299
247
144
132
74
-8
-48
-50
-64
-145
-166
-172
-155
-112
-71
8
-16
-72
-32
20
43
64
94
86
7
-65
-51
-60
-47
-6
1
45
20
-19
-17
-12
8
16
37
82
112
120
65
-25
-92
-127
-104
-67
-9
-4
-1
63
47
9
-12
-15
-32
-59
-81
-85
-36
6
78
169
224
192
83
8
-38
-92
-132
-138
-151
-133
-93
-65
-56
-64
19
115
123
127
175
194
175
109
1
-52
-111
-175
-193
-182
-200
-176
-60
41
47
20
49
106
148
119
93
117
117
65
11
-34
-94
-95
-70
-69
-81
-65
-50
-41
37
111
148
201
186
57
-47
-126
-148
-120
-139
-161
-137
-74
-37
14
41
27
-27
-63
1
85
144
100
80
74
97
154
87
44
42
41
15
-12
-12
-8
-11
-81
-95
-52
-55
-100
-56
-19
-105
-126
-70
17
86
100
88
90
34
-44
-75
-115
-137
-89
-26
-11
24
54
49
26
17
48
60
24
-36
-55
-26
25
13
9
48
78
66
-19
-85
-130
-140
-89
-19
39
31
14
80
132
94
13
1
79
127
121
106
98
114
109
4
-157
-261
-226
-107
-80
-33
57
51
35
4
-27
-20
10
36
47
40
40
31
-1
-32
-75
-98
-92
-94
-102
-72
-46
-34
-21
-13
-9
41
60
13
17
50
55
10
-39
-59
-67
-14
70
114
171
207
165
78
-5
12
28
2
2
21
25
-6
-38
-91
-96
-60
-50
-87
-134
-128
-83
-16
2
7
19
-1
2
-8
-62
-75
-22
32
73
56
17
-14
-9
55
70
50
53
65
65
47
17
-19
-27
-66
-129
-92
-32
-16
6
-26
-36
21
23
4
24
66
96
71
36
32
-16
-78
-90
-77
-8
83
84
61
42
-7
19
44
-37
-74
-52
-43
-41
-67
-79
-65
-52
6
67
68
74
102
93
75
55
12
-9
-19
-16
-14
-19
-44
-102
-130
-140
-105
-62
-22
54
65
35
22
67
99
52
-2
-28
-35
-57
-70
-70
-82
-67
-45
-64
-29
27
49
102
143
198
227
195
100
-45
-145
-236
-246
-152
-28
74
107
145
223
255
196
110
26
-24
6
22
-52
-162
-200
-175
-175
-176
-120
-84
-42
-23
-70
-64
-18
-29
-116
-130
-55
21
97
182
251
251
210
91
-4
-42
-133
-144
-67
-34
-4
40
37
37
44
31
52
104
128
72
36
68
90
37
-59
-100
-104
-93
-74
-47
-27
-34
-77
-111
-101
-96
-62
-27
-12
3
-8
-26
-30
-31
-29
22
49
74
104
74
68
69
56
38
11
-6
0
36
60
97
113
49
-112
-237
-246
-248
-215
-150
-94
39
178
218
236
216
195
213
221
195
59
-36
-67
-136
-176
-170
-65
-5
2
-11
-36
-21
-30
-30
-50
-49
-44
-67
-80
-67
-69
-74
-32
-8
17
-13
-71
-84
-28
60
62
19
-26
28
109
96
87
102
152
184
74
-90
-130
-69
-99
-127
-46
40
116
114
106
123
104
74
-14
-85
-79
-56
-52
-54
-44
-24
5
-1
-55
-115
-150
-151
-128
-64
-44
-42
-12
19
92
148
149
117
64
14
12
-79
-152
-19
74
92
67
60
165
194
124
84
60
6
-26
-56
-79
-128
-155
-127
-145
-122
-55
22
47
56
65
21
-23
-79
-82
-75
-82
-64
2
52
43
67
72
88
80
46
59
51
25
-20
-104
-205
-292
-272
-190
-137
-26
137
268
318
311
307
301
221
44
-48
-79
-87
-102
-144
-65
-17
-62
-89
-94
-109
-89
-17
27
39
16
6
37
36
-3
1
40
22
0
-22
-69
-105
-135
-127
-77
-22
51
96
42
-7
6
-9
9
64
100
132
140
87
41
42
-2
-42
-62
-74
-63
-105
-175
-221
-188
-129
-59
58
132
188
218
205
148
72
-41
-111
-48
-30
-77
-91
-47
-4
-1
-20
2
6
-50
-51
-12
65
109
85
109
178
171
84
16
-71
-125
-111
-96
-34
28
45
54
64
2
-90
-104
-91
-62
-26
4
16
-16
-74
-100
-84
-42
42
116
141
148
131
81
76
12
-157
-216
-181
-127
-66
-42
12
95
177
153
46
-7
-54
-77
-49
-21
-2
42
86
60
7
-65
-138
-116
-33
26
40
42
36
-13
-29
-55
-60
2
-19
-91
-146
-163
-169
-166
-96
2
99
200
267
297
362
328
227
234
260
231
117
-26
-130
-160
-142
-153
-148
-118
-101
-115
-134
-143
-183
-190
-117
-67
-80
-110
-135
-95
-12
44
98
111
108
113
91
90
40
-15
-28
-26
17
25
6
-19
-29
-54
-104
-87
-76
-95
-60
24
125
213
233
196
210
201
98
-6
-69
-64
-40
-19
-39
-77
-89
-117
-103
-73
-42
-44
-54
-33
-17
-2
0
1
-9
2
6
-1
11
21
32
27
26
19
15
-4
-31
-41
-62
-60
-40
-32
-1
37
45
42
9
-24
-4
1
-18
-61
-98
-71
-42
-8
36
100
182
233
277
262
162
72
22
-1
-20
-52
-72
-67
-66
-106
-157
-184
-195
-148
-62
-11
-2
14
26
-21
-60
-54
-22
29
52
61
43
4
-6
-13
-10
1
8
31
52
49
37
17
-44
-88
-76
-62
-68
-52
-28
32
188
273
243
198
97
16
-6
-26
-48
-64
-82
-102
-76
-74
-92
-95
-74
-28
-63
-95
-35
33
64
67
85
104
47
-19
-7
-27
-64
-69
-87
-77
-68
-35
-6
-14
31
55
50
29
14
-7
-57
-72
-107
-135
-116
-39
44
81
122
198
287
302
255
203
201
181
84
-36
-136
-203
-253
-243
-198
-99
14
45
52
64
46
-37
-77
-132
-188
-132
-115
-75
-31
-24
6
34
48
39
49
71
114
115
73
41
-12
-64
-76
-70
-71
-29
11
30
18
-50
-94
-104
-96
-72
-34
26
88
62
20
42
17
-22
40
109
152
184
117
65
95
89
32
-78
-142
-67
-26
-51
-75
-121
-70
-2
-17
-8
17
42
59
51
14
17
30
20
65
87
117
104
44
46
28
-24
-92
-150
-185
-198
-175
-186
-180
-107
-52
-23
41
108
115
99
74
47
58
62
63
44
-36
-39
24
22
45
79
78
27
-69
-87
-80
-118
-103
-49
-10
63
107
74
52
64
99
112
77
32
25
24
-21
-52
-82
-91
-79
-90
-95
-105
-108
-97
-70
-56
-27
27
74
90
39
6
1
7
-26
-100
-81
-53
12
120
190
281
325
312
285
219
82
-65
-155
-192
-201
-206
-170
-139
-116
-109
-102
-77
-60
-37
-33
-28
-32
-36
-20
-32
-84
-109
-13
67
107
183
248
309
281
145
-26
-142
-159
-153
-165
-125
-39
17
12
-24
6
27
6
2
-37
-91
-123
-85
-42
-59
-37
34
126
198
223
184
95
-6
-49
-44
-74
-63
-10
36
74
72
55
28
19
-11
-61
-61
-39
17
49
4
-32
-40
-54
-27
-30
-39
-10
-21
-47
-60
-55
-99
-150
-115
-108
-119
-59
-1
110
226
210
191
227
195
107
53
-6
-25
-29
-39
-22
-38
-67
-95
-99
-80
-77
-71
-75
-66
-27
-15
-25
-20
30
70
75
87
94
65
19
-19
-30
2
-1
-39
-46
-36
-17
2
-16
-55
-70
-81
-62
-48
-74
-47
-8
-42
-92
-69
21
103
168
207
234
251
206
122
22
-42
-57
-65
-59
-20
21
16
4
-14
-19
-3
-8
-14
-75
-130
-93
-47
-47
-59
-56
-23
20
-1
-24
4
23
38
59
49
34
-6
-55
-59
-71
-65
-48
-56
-65
-13
37
35
50
39
54
81
102
138
66
-7
-39
-52
-19
-7
-12
-12
-26
-31
-33
-65
-95
-120
-143
-132
-122
-70
35
97
147
182
153
74
-8
-70
-97
-87
-59
1
80
175
262
338
298
171
97
55
9
-101
-188
-201
-185
-147
-130
-129
-136
-107
-52
4
31
29
10
-8
-9
-30
-24
-31
-29
11
25
28
18
-4
-18
-24
-74
-135
-118
-49
22
99
154
181
204
155
87
19
-89
-158
-143
-142
-145
-85
-67
-27
20
31
42
77
163
216
209
152
113
94
49
-11
-68
-67
-72
-104
-72
-20
-41
-75
-69
-84
-75
-31
-16
30
46
31
26
1
-6
2
25
64
76
56
-6
-62
-103
-176
-187
-162
-173
-143
-54
46
147
236
262
256
208
137
82
-33
-131
-127
-76
-22
4
-7
22
79
89
69
11
-28
-54
-54
-43
-64
-57
-64
-61
-60
-49
-27
-35
-28
-24
-27
-31
-16
-15
-36
-51
-58
-57
-57
-75
-105
-29
59
83
132
168
162
132
95
26
6
34
72
127
147
143
85
9
-89
-195
-219
-174
-115
-100
-114
-97
-77
-121
-115
-59
11
135
254
329
355
338
262
132
19
-72
-148
-159
-146
-136
-125
-124
-109
-108
-86
-59
-42
-23
-21
-23
-39
-51
-60
-37
6
35
51
47
44
27
2
-12
-1
13
17
17
14
-9
-47
-30
-19
-47
-46
-16
21
44
72
34
-55
-102
-158
-186
-107
-71
-82
48
263
384
428
418
322
283
247
145
54
-12
-66
-146
-220
-253
-241
-236
-202
-143
-117
-97
-70
-53
-53
-71
-112
-140
-188
-271
-339
-331
-151
57
214
379
495
589
584
425
220
87
27
-54
-138
-159
-146
-135
-121
-120
-133
-117
-84
-62
-54
-55
-41
-36
-34
-23
-21
-19
-14
5
6
-1
8
12
22
16
11
11
2
-7
-15
-11
-2
-9
-7
11
19
26
25
14
17
17
15
20
17
21
30
24
12
15
12
12
12
4
-1
-15
-17
-12
-11
-2
19
31
32
29
14
6
-6
-27
-52
-49
-41
-50
-60
-83
-92
-88
-79
-59
-21
36
69
85
90
78
86
120
142
136
107
68
69
61
11
-44
-81
-55
-52
-65
-50
-64
-62
-58
-57
-60
-106
-123
-112
-89
-42
-2
51
94
109
111
108
107
72
29
11
12
31
12
-31
-57
-70
-57
-60
-59
-50
-49
-19
2
-6
-46
-146
-253
-284
-268
-166
-22
79
203
324
407
449
432
317
192
115
21
-64
-87
-87
-105
-115
-113
-111
-123
-130
-117
-85
-56
-59
-105
-175
-203
-203
-218
-192
-70
78
183
286
369
386
362
273
82
-77
-130
-117
-105
-115
-91
-80
-85
-94
-92
-60
-27
-16
-22
-10
-16
-39
-48
-48
-37
-21
1
31
64
73
71
79
84
79
79
46
12
14
16
21
5
-17
-41
-75
-83
-67
-60
-68
-56
-23
6
20
12
-10
-19
11
42
66
82
87
90
79
62
40
36
34
-7
-41
-40
-44
-59
-52
-21
-12
-33
-44
-49
-55
-44
-35
-42
-60
-69
-49
-23
4
1
-36
-9
48
64
73
84
80
90
117
134
103
52
7
-39
-80
-128
-153
-168
-197
-157
-121
-116
-16
54
56
79
104
85
46
71
95
93
84
54
16
-9
-21
-29
-93
-196
-190
-115
2
161
181
152
244
292
236
179
82
-109
-262
-218
-60
88
203
221
150
48
-49
-95
-185
-288
-259
-170
-102
-80
-108
-148
-194
-215
-198
-103
80
210
275
317
292
244
139
29
-41
-98
-90
-94
-84
-83
-96
-81
-80
-77
-133
-165
-197
-251
-176
-87
-8
101
263
416
446
433
367
228
44
-58
-75
-99
-82
-54
-44
-64
-85
-109
-124
-129
-144
-110
-77
-55
-41
-38
-34
-16
11
25
30
42
61
59
56
47
23
-5
-23
9
18
-8
-12
1
0
-34
-39
7
37
49
44
10
-7
17
26
12
25
59
64
39
22
18
-2
-37
-59
-57
-42
-28
-17
-2
9
4
-6
-1
-15
-16
-19
-32
-23
-31
-29
-11
-9
-10
-32
-65
-81
-89
-69
-32
12
64
85
105
139
160
152
127
83
37
10
-21
-41
-64
-74
-74
-59
-62
-76
-50
-32
-15
-7
-3
0
-1
15
12
14
22
-1
-15
-14
-6
16
9
2
4
-5
-10
-15
2
18
12
7
-1
-2
-8
-17
-11
7
3
-17
-15
-21
-17
-6
-14
-11
-27
-39
-37
-47
-56
-64
-28
44
111
127
126
139
133
108
70
37
-5
-47
-75
-82
-74
-62
-54
-57
-49
-41
-34
-13
-1
-17
-36
-30
-9
-8
-9
6
21
20
12
16
8
-6
2
19
16
2
4
9
15
11
16
31
22
0
-26
-54
-82
-111
-97
-42
-4
22
61
79
75
81
75
72
65
39
3
-24
-14
1
-11
-110
-269
-320
-272
-213
-125
-44
75
244
338
352
307
198
191
208
179
210
257
279
191
96
4
-99
-188
-275
-297
-321
-340
-326
-293
-216
-163
-141
-67
3
17
16
20
9
-5
4
10
12
6
7
13
29
42
53
77
57
50
53
44
25
-4
-27
-125
-213
-246
-220
-147
-119
-67
97
263
429
584
569
440
231
0
-173
-248
-244
-199
-116
-51
64
147
152
160
108
45
1
-57
-95
-166
-271
-330
-317
-228
-101
32
99
86
34
-21
-17
-3
2
20
-37
-118
-19
125
224
314
309
234
166
107
-58
-233
-281
-234
-149
-87
-137
-188
-37
114
47
-111
-164
-44
128
225
328
403
369
287
198
76
-105
-195
-216
-274
-278
-248
-211
-136
-95
-113
-94
-55
-28
-22
-7
31
36
5
-2
8
20
51
49
36
42
39
36
30
31
39
33
14
13
14
6
10
6
-9
-6
19
21
4
-10
-63
-166
-159
-17
48
91
124
115
148
164
145
84
43
32
16
-5
-27
-30
-61
-81
-65
-61
-60
-70
-64
-35
-20
2
9
7
17
-4
-28
-33
-18
9
28
19
-7
-18
-22
-22
-12
6
-7
-34
-26
-14
-31
-40
-5
37
35
42
54
46
36
-29
-114
-133
-90
-46
-31
-32
12
82
130
177
152
115
89
44
24
-16
-36
-43
-35
-7
-14
-35
-29
-42
-90
-107
-133
-128
-84
-101
-65
27
61
80
63
52
116
171
214
244
207
138
71
2
-95
-186
-204
-180
-136
-111
-109
-82
-57
-55
-49
-9
19
22
6
-4
11
6
8
22
28
34
27
12
14
18
17
29
27
9
-11
-9
-1
6
8
-3
-2
5
6
0
-7
-9
-13
-4
15
11
-1
-3
7
11
1
-5
-9
-4
-3
2
6
2
6
9
19
22
26
21
6
3
-13
-22
-11
-6
-1
-16
-29
-23
-23
-6
7
11
19
27
4
-31
-62
-106
-133
-130
-146
-170
-102
-14
-19
11
142
238
292
311
324
360
323
229
128
21
-106
-218
-278
-287
-249
-205
-194
-209
-170
-113
-125
-129
-99
-33
74
186
277
317
313
235
147
77
-2
-33
-55
-97
-146
-164
-141
-131
-101
-56
-10
16
22
35
8
-15
-11
-23
-39
-42
-20
40
21
-66
-86
-56
-21
16
63
87
79
68
58
52
41
-14
-107
-132
-108
-110
-62
-32
-28
-14
-36
-48
-30
-46
-57
7
147
351
471
464
380
253
126
22
-60
-181
-297
-311
-220
-72
46
90
124
129
52
-66
-171
-209
-238
-290
-281
-196
-65
67
116
73
59
49
16
39
51
81
86
24
21
33
22
-10
-39
-9
29
29
18
-18
-57
-97
-90
1
21
-52
-82
-13
75
118
168
189
119
44
-16
-94
-149
-127
-46
-21
-16
27
41
6
-4
-4
-39
-40
-22
0
17
2
-14
-53
-98
-45
27
15
33
69
87
96
77
67
31
-9
-53
-88
-57
-69
-92
-57
-49
-37
-12
-54
-47
19
64
85
82
117
160
198
204
116
42
6
-32
-59
-80
-112
-182
-251
-247
-173
-70
-3
14
32
52
75
77
-13
-53
14
-7
-20
74
147
163
122
63
24
-51
-138
-150
-92
-21
49
74
42
20
-36
-123
-146
-140
-135
-36
67
115
178
225
224
115
-89
-219
-188
-153
-192
-206
-74
74
147
205
233
223
138
95
85
95
79
-15
-6
24
-68
-199
-173
-85
-100
-75
-1
55
119
212
224
149
74
-21
-74
-105
-112
-62
-20
-13
-54
-95
-103
-113
-91
-85
-124
-133
-89
-39
-30
-18
-16
-18
-9
9
64
89
79
60
-1
-35
-2
7
-6
8
38
64
41
-21
-61
-40
22
62
93
124
128
120
86
56
18
-62
-106
-121
-141
-132
-89
-34
11
22
40
26
-23
43
116
150
168
123
97
46
-29
-95
-123
-84
-26
-16
-43
-50
-16
37
36
31
17
-7
4
12
-4
-50
-95
-135
-132
-64
-13
10
34
57
44
14
20
17
-44
-81
-62
-27
-11
-7
-12
-24
26
64
67
101
73
26
21
3
-59
-138
-127
-75
6
104
138
149
118
67
70
54
18
-1
-49
-94
-122
-75
-7
17
42
17
-7
-1
2
-12
-29
-59
-100
-79
-24
24
51
20
10
42
49
34
-12
-83
-100
-49
0
44
75
65
24
-47
-93
-106
-78
-11
12
34
120
169
162
139
100
80
24
-62
-102
-113
-137
-171
-222
-215
-117
-44
6
41
92
130
103
65
76
117
122
107
57
36
28
29
34
8
17
6
-26
-55
-104
-112
-84
-99
-107
-49
-4
-2
-15
-11
12
60
74
40
21
-14
-44
-14
39
40
22
2
-25
-47
-72
-62
-54
-60
-62
-43
-42
-65
-41
22
48
66
100
88
60
52
48
7
-19
-4
12
11
-20
-49
-91
-121
-82
16
61
58
92
128
155
141
122
100
48
41
8
-67
-162
-268
-233
-72
14
20
16
5
64
75
23
-9
-40
-1
24
46
41
21
33
-1
-29
-41
-35
-32
-40
-47
-52
-32
2
34
46
46
46
60
47
24
14
-44
-87
-82
-79
-70
-63
-44
-11
-3
29
70
66
57
40
15
-2
-30
-74
-121
-136
-73
7
46
74
92
97
88
76
59
32
6
-12
-106
-159
-59
-4
36
88
92
99
107
110
9
-112
-125
-68
4
46
102
130
113
61
13
4
-44
-97
-144
-203
-197
-107
-27
31
96
110
73
7
-36
-40
-29
-6
17
21
12
41
65
59
32
-29
-17
20
12
7
-10
-9
-22
-39
-41
-21
15
24
2
-23
-19
-22
-17
-9
6
23
22
17
-17
-47
-38
-26
-25
-16
-14
-13
-9
-19
-36
-35
-16
-11
-9
-25
-54
-73
-44
22
14
-28
3
86
107
104
39
-69
-7
105
85
22
32
73
61
17
-16
-60
-44
29
61
81
52
-1
-14
-9
-62
-102
-77
-119
-107
-21
5
-9
-39
-48
7
11
11
79
82
89
89
74
70
52
55
14
-9
-16
-58
-77
-75
-99
-127
-110
-80
-39
-34
-7
44
52
79
94
70
56
40
16
11
0
-12
-24
-41
-46
-68
-104
-109
-92
-62
-31
-2
11
32
68
65
67
62
49
30
-2
-9
-17
-21
-14
7
45
80
79
42
-19
-58
-88
-127
-90
-9
65
72
37
52
39
24
1
-32
-15
11
39
41
36
19
-21
-9
27
-17
-82
-110
-180
-197
-90
39
131
165
171
132
40
-5
-44
-92
-38
26
37
36
2
-10
5
35
51
43
32
-4
-40
-42
-39
-55
-36
8
29
21
-31
-75
-50
-35
-62
-49
-36
-45
-17
8
-2
-17
18
79
77
83
103
85
51
-2
-18
-27
-102
-185
-207
-168
-90
-64
-28
66
123
138
130
157
147
155
191
168
123
4
-156
-206
-140
-160
-193
-127
-36
27
54
95
89
74
37
-20
-46
-56
-39
-6
28
17
4
20
33
27
7
-15
-59
-80
-53
-41
-62
-86
-96
-64
15
63
43
20
-18
-34
25
68
82
84
39
-70
-92
5
51
127
139
22
-136
-180
-41
25
68
125
229
313
287
249
80
-109
-167
-179
-229
-258
-218
-148
-88
-58
-63
-110
-127
-122
-82
13
64
41
55
121
172
190
156
116
64
52
61
35
-4
-122
-161
-47
47
56
47
37
16
10
9
-63
-181
-188
-128
-98
-41
37
58
63
80
89
85
37
-3
-34
-50
-12
-3
-19
-23
-29
-44
-59
-29
-24
-36
-12
-22
-33
57
127
105
79
58
51
-5
-45
-69
-97
-105
-96
-41
-77
-127
-33
89
140
197
228
180
140
100
45
-31
-100
-110
-63
-31
-43
-22
-3
-2
-14
-27
-22
-37
-56
-67
-62
-40
-18
-11
-1
-4
-6
-2
10
23
-1
-28
-67
-65
-54
-49
21
90
119
140
161
138
86
32
-15
-24
-27
-39
-43
-37
-37
-53
-63
-59
-45
-39
-27
-14
-10
-4
-2
-7
-16
-26
-29
-8
16
30
32
38
41
28
23
9
19
58
44
2
0
-4
-12
-1
-11
-26
-34
-62
-92
-89
-69
-64
-48
10
71
126
158
184
192
133
90
64
-8
-71
-109
-123
-128
-135
-140
-124
-72
-78
-62
45
111
106
102
109
92
75
61
23
-37
-44
-32
-49
-41
-41
-27
-31
-57
-76
-72
-13
17
24
15
-7
-49
-108
-107
-76
-51
47
140
135
67
-29
-50
-64
-56
-17
-49
17
198
239
225
214
152
107
-7
-84
-93
-95
-79
-132
-160
-133
-112
-62
-19
-47
-108
-170
-213
-205
-163
-106
-27
87
109
74
152
290
346
334
344
316
256
181
155
85
-83
-189
-249
-282
-342
-415
-377
-236
-43
84
130
118
56
-12
-75
-159
-237
-196
-88
65
237
402
480
446
377
251
149
-10
-161
-204
-239
-221
-183
-171
-175
-146
-88
-49
-79
-288
-595
-598
-292
-86
89
342
596
746
778
778
625
372
118
-165
-334
-380
-433
-396
-267
-179
-123
-98
-60
-39
-23
-4
-14
-4
-36
-82
-99
-171
-236
-131
2
27
44
116
223
301
344
312
239
142
52
6
-22
-47
-90
-105
-148
-159
-109
-78
-57
-58
-38
-22
-30
-29
-40
-42
-21
14
19
-12
-44
-77
-122
-180
-191
-77
88
218
312
339
319
284
223
115
-12
-97
-166
-192
-182
-149
-91
-82
-96
-113
-123
-90
-49
-17
-3
1
20
40
21
6
36
27
64
132
95
70
74
87
92
72
72
58
49
17
-60
-163
-205
-153
-123
-85
-28
-4
-19
-19
13
49
91
55
41
86
96
80
60
46
12
-6
9
4
-9
-26
-45
-54
-103
-143
-142
-110
-68
-46
-2
27
46
-6
-160
-298
-329
-171
16
153
247
264
258
219
107
-30
-21
68
113
153
192
190
147
108
67
-1
-80
-135
-171
-213
-223
-180
-115
-79
-89
-98
-70
-55
-37
27
69
60
27
5
10
19
9
-24
-42
-11
-8
-32
-16
3
8
4
11
15
12
29
14
3
-8
-43
-41
-30
-22
-26
-31
42
109
152
189
203
220
195
165
123
67
4
-76
-114
-140
-163
-153
-106
-47
-32
-62
-72
-80
-163
-255
-282
-205
-35
125
278
391
398
374
354
274
139
1
-101
-166
-243
-255
-196
-145
-94
-62
-44
-34
-22
-17
-20
-9
-8
-19
-20
-14
-16
-26
-31
-22
-11
-6
1
20
26
35
62
57
42
22
-6
-18
-37
-49
-40
-41
-22
28
46
46
60
51
50
49
40
50
49
31
25
29
5
-13
-6
-11
-12
-6
-12
-34
-42
-35
-24
-17
-17
-10
-4
0
8
16
24
29
33
44
46
24
17
27
19
24
49
24
-22
-47
-89
-101
-101
-89
-83
-96
-69
-59
-52
-49
-39
-22
-24
-17
-16
-3
-2
-5
-4
-14
-24
-31
-22
-12
6
19
31
31
19
13
-25
-44
-34
-27
-20
7
64
113
142
132
135
131
77
62
65
59
51
41
64
83
82
37
-14
-80
-155
-171
-191
-182
-133
-85
-57
-53
-41
-31
-24
-24
-23
-29
-26
-12
-32
-132
-259
-297
-258
-139
17
119
213
271
332
415
438
451
416
283
77
-70
-125
-180
-173
-94
-92
-117
-67
-10
-1
-47
-109
-139
-219
-274
-215
-105
21
116
185
193
188
206
200
199
155
24
-147
-211
-131
-73
-45
-26
-106
-213
-180
-75
-2
46
0
-67
-147
-205
-45
163
241
362
402
279
280
352
239
140
74
-16
-59
-188
-259
-316
-337
-268
-194
-153
-251
-296
-233
-172
-89
-46
-17
143
344
410
397
440
451
386
258
57
-119
-243
-322
-393
-419
-403
-343
-233
-213
-175
-86
-24
41
84
110
113
142
141
97
77
58
60
73
72
40
37
24
-6
-7
-24
-31
-40
-32
-29
-20
-5
-2
-8
-28
-9
10
6
-14
-18
-11
-16
-2
17
12
4
15
27
29
7
2
6
6
12
6
1
-74
-157
-89
-30
-57
-36
-16
47
128
153
193
160
79
60
77
61
52
67
32
-20
-38
-55
-58
-62
-94
-113
-113
-95
-69
-57
-67
-44
-12
-6
-11
-18
16
20
23
57
70
62
36
21
11
-17
-72
-102
-107
-172
-297
-313
-156
31
211
375
475
478
422
348
253
134
-2
-138
-251
-324
-345
-299
-245
-180
-107
-67
-51
-34
-9
2
1
19
45
60
59
44
39
25
25
24
5
21
32
26
20
22
22
18
6
-4
3
9
17
17
1
-7
-28
-21
17
10
10
4
-32
-29
-11
-9
-14
-18
1
12
42
67
67
71
55
42
38
27
-2
-31
-46
-60
-57
-52
-42
-28
-16
-16
-19
-29
-32
-12
4
32
40
19
10
16
12
5
7
-11
-20
-21
-22
-14
-1
1
-12
-7
1
-6
-2
-4
-14
-7
4
14
16
14
25
16
2
11
17
7
-5
2
6
-3
-6
-7
-11
-21
-8
6
-2
-10
-9
-7
-9
-6
-7
-1
3
-1
3
-2
-4
2
4
4
2
12
24
22
40
55
28
3
-9
-17
-40
-60
-56
-59
-52
-35
-22
-14
-16
-18
-15
-6
-10
2
16
19
21
18
24
16
15
17
5
1
9
12
-4
-7
-1
3
6
-9
-14
-12
-12
-7
-11
-6
-1
-7
-9
-10
-2
8
2
7
8
9
13
6
-5
-1
9
12
19
20
21
35
42
31
27
32
36
26
4
-6
-22
-27
-27
-28
-34
-41
-39
-39
-21
-13
-27
-41
-37
-26
-31
-24
-22
-29
-31
-27
-39
-63
-47
-14
28
52
52
78
97
89
78
62
50
50
41
6
-14
-29
-44
-41
-54
-51
-19
10
7
-4
2
-9
-6
-17
-51
-65
-77
-57
5
45
69
109
136
118
91
77
60
53
26
-17
-61
-97
-113
-105
-81
-59
-36
-44
-57
-65
-76
-74
-68
-29
20
56
87
99
109
111
99
87
70
44
21
3
-28
-49
-63
-79
-72
-68
-55
-34
-17
-16
-24
-42
-59
-43
-13
17
14
-11
-57
-152
-210
-163
-108
-72
55
197
275
332
353
334
289
239
166
91
31
-44
-110
-154
-193
-215
-192
-164
-138
-112
-117
-133
-131
-106
-101
-100
-104
-98
-85
-81
-14
41
72
75
148
273
292
306
259
200
192
150
84
-10
-69
-119
-253
-334
-332
-334
-284
-231
-154
-41
51
127
178
230
214
191
101
3
44
8
1
-10
-60
6
1
-1
0
-10
32
11
-6
-37
-110
-200
-249
-177
-72
-42
-11
41
42
47
72
116
141
132
112
63
16
3
21
42
42
7
-28
-34
-54
-65
-71
-74
-35
-25
-19
6
4
10
15
9
-9
-37
-28
1
13
21
24
27
22
18
2
-22
-8
-24
-92
-132
-107
-42
20
52
87
118
130
172
202
198
173
166
132
22
-69
-119
-144
-170
-222
-254
-220
-183
-205
-185
-122
-39
52
106
152
205
224
214
208
173
155
132
74
21
-29
-57
-75
-82
-72
-67
-65
-77
-85
-96
-58
-5
-1
-3
-39
-68
-49
-47
-12
54
68
92
88
37
12
-24
-22
-7
-39
-75
-163
-305
-393
-274
-44
101
218
332
391
415
426
387
311
210
81
-55
-180
-252
-263
-250
-250
-236
-179
-124
-86
-60
-29
1
17
34
33
29
33
38
39
31
21
12
14
26
12
-32
-52
-43
16
57
60
80
72
65
36
17
28
2
-9
-31
-41
-40
-55
-68
-87
-89
-77
-57
-37
-19
-32
-106
-163
-197
-265
-266
-135
58
269
468
571
559
503
421
337
226
79
-58
-218
-326
-385
-400
-322
-251
-187
-134
-96
-68
-55
-25
-4
12
19
28
40
46
36
7
6
17
59
102
109
109
90
82
78
54
22
-14
-50
-85
-96
-95
-96
-67
-37
-30
-11
-3
-11
-14
-32
-85
-107
-70
-53
-59
-39
59
166
220
249
259
256
211
137
71
11
-68
-140
-175
-188
-190
-172
-152
-135
-109
-83
-54
-42
-28
-6
10
17
4
1
8
6
21
57
56
45
41
26
25
15
7
12
15
24
30
33
30
26
21
24
27
20
16
-4
-17
10
21
16
12
3
-11
-24
-27
-28
-23
-20
-16
-4
-6
-14
-13
-14
-14
-2
-3
-5
1
4
6
14
17
9
9
-14
-41
-26
-11
-11
-7
-5
0
-3
-1
7
6
19
29
27
21
4
2
3
-15
-16
7
10
11
14
3
-13
-30
-34
-30
-16
-12
-16
-2
10
19
12
4
1
-9
-14
-11
-9
-4
4
6
6
10
24
32
27
37
53
31
10
3
-10
-19
-24
-15
-25
-34
-33
-37
-28
-30
-44
-73
-73
-56
-44
-9
3
16
41
32
45
57
39
44
27
6
-1
-37
-124
-190
-181
-148
-64
28
119
178
166
205
243
203
178
148
80
9
-65
-130
-186
-212
-202
-175
-127
-96
-87
-61
-31
-23
-17
10
39
27
3
16
36
38
40
11
-61
-101
-84
-32
-28
-69
-39
65
135
175
247
231
197
220
217
206
175
92
10
25
-8
-74
-108
-155
-195
-265
-296
-234
-150
-112
-80
-42
-35
-49
-30
19
43
69
95
57
-9
-42
-7
55
94
137
158
173
205
166
67
-9
-37
-35
-49
-72
-97
-130
-167
-163
-137
-127
-129
-100
-76
-86
-60
-34
14
77
81
80
98
103
90
74
57
36
31
37
14
6
16
7
13
17
4
-6
-2
7
3
-9
-14
-17
-18
-14
-14
-14
-1
7
-2
-12
-44
-62
-7
16
7
1
-31
-40
-38
-19
-21
0
40
47
55
19
-12
-11
26
69
97
110
77
46
27
-5
-37
-32
-34
-45
-33
-47
-70
-75
-92
-98
-79
-66
-51
-34
-39
-41
-6
34
40
19
-1
11
50
106
132
123
115
84
42
-1
-32
-56
-74
-63
-52
-54
-47
-38
-33
-33
-22
12
26
14
5
-2
8
11
5
1
-3
9
7
1
9
6
11
16
12
2
-6
1
6
9
8
15
7
-4
-19
-67
-115
-145
-205
-251
-122
96
190
253
316
308
294
238
189
144
55
-41
-123
-191
-251
-250
-210
-160
-115
-59
-21
-27
-31
-33
-41
-50
-45
-31
-22
-32
-21
-19
-7
41
103
230
264
244
220
157
98
18
-22
-84
-139
-180
-210
-210
-196
-157
-101
-51
-26
-6
11
29
36
39
44
45
52
50
34
32
34
31
25
23
24
24
18
9
7
-1
-7
7
16
19
17
12
9
-3
2
-3
-17
-14
-16
-24
-39
-27
-6
4
18
28
22
2
13
17
5
9
17
14
-6
-11
-15
-26
-25
-17
-9
-11
-19
-28
-22
-22
-23
-22
-46
-54
-14
24
52
88
73
19
-9
-11
-1
2
14
24
19
9
3
-4
-25
-82
-191
-261
-216
-91
30
109
151
188
205
158
95
80
152
172
124
57
-7
-24
-61
-74
-84
-112
-119
-110
-113
-138
-168
-153
-104
-102
-87
-53
1
1
-128
-73
132
210
259
261
278
281
211
155
77
9
-58
-103
-168
-210
-190
-188
-180
-136
-65
-27
-11
0
7
14
17
22
27
36
19
4
25
42
46
42
31
21
14
26
39
30
13
8
3
-5
-8
-10
-3
-11
-17
-3
7
0
-7
-4
-9
-8
-9
-17
-6
8
-4
-14
-14
-13
-2
24
17
6
11
-10
-16
-17
-12
-1
-6
-6
-6
-6
-10
-12
-11
-2
1
-5
3
-4
-2
14
2
-3
-1
0
7
2
-9
-27
-31
-14
5
12
12
9
7
16
12
0
-14
-27
-17
-7
7
34
27
2
4
-13
-18
-1
9
1
-10
-6
-6
-3
4
1
-16
-26
-7
2
-3
15
17
17
-7
-74
-113
-102
-34
27
58
91
110
124
135
127
112
95
80
48
-1
-42
-90
-123
-137
-140
-129
-113
-95
-71
-36
-15
-3
11
12
16
20
23
31
26
16
11
12
16
6
9
31
42
38
24
23
19
9
6
7
13
7
-4
-10
-6
-2
-5
-13
-30
-37
-29
-25
-32
-11
19
31
21
-4
-26
-21
-4
-14
-4
21
58
69
26
-12
-95
-157
-124
-64
-34
2
57
77
90
98
88
89
100
97
58
39
19
-34
-55
-54
-32
-14
-8
-36
-65
-64
-64
-59
-59
-43
-30
-41
-50
-41
-25
-15
-6
-8
6
9
-1
-1
5
10
6
7
5
15
16
17
27
17
18
5
6
14
4
11
14
11
10
8
-7
-4
13
5
11
19
16
19
19
26
22
7
4
-4
-6
-2
1
0
-6
-2
-5
-22
-33
-32
-30
-10
13
5
-9
-9
0
3
-12
-14
-6
1
14
26
13
1
9
-1
0
-2
-7
-14
-26
-16
-9
-1
2
-3
8
4
-12
-17
-22
-18
-12
1
12
8
11
0
-16
-13
-7
-2
3
9
0
-7
-9
-6
6
3
1
5
4
8
12
7
-4
-3
14
7
-23
-42
-27
-16
-17
-3
-4
7
22
25
16
9
16
15
20
13
12
16
14
16
9
10
7
5
-1
0
11
11
5
3
22
51
53
35
19
9
-9
-16
-17
-20
-22
-23
-27
-32
-21
-21
-24
-31
-31
-21
-6
27
39
36
35
21
22
37
36
31
13
-7
-26
-46
-46
-41
-37
-34
-26
-21
-19
-20
-8
-1
-17
-48
-91
-106
-64
-3
47
63
46
63
121
183
200
161
99
57
35
-6
-52
-77
-95
-138
-147
-131
-133
-112
-97
-75
-64
-55
-22
-6
7
13
18
19
21
31
29
29
27
32
22
16
19
20
22
3
-9
-2
0
-9
7
11
2
11
0
3
11
3
1
6
-4
-6
-1
-6
4
11
6
14
32
27
16
6
-11
-9
-12
-15
-2
1
6
11
3
4
2
1
-4
-16
-21
-14
-7
-7
8
12
-7
-6
-7
-8
-18
-24
5
24
11
4
11
4
-4
-6
-4
-2
1
-3
-7
3
-2
1
6
-9
-2
5
-4
-11
-3
-8
-12
-13
-21
-6
-1
0
14
11
3
4
1
-2
1
2
6
4
4
4
-1
2
7
6
1
-1
-3
-4
1
5
9
11
12
6
-2
-3
-2
2
1
2
-1
-6
-1
2
12
19
17
16
9
16
19
11
7
-11
-21
-19
-20
-27
-33
-26
-26
-16
-5
-2
7
7
1
-1
1
-8
-20
-12
-17
-22
-14
5
26
21
12
1
-22
-35
-54
-75
-31
21
50
110
138
133
106
36
-39
-77
-60
-16
22
24
-6
-41
-60
-68
-69
-75
-78
-75
-74
-67
-60
-57
-60
-52
-29
-17
-5
12
35
47
41
30
31
40
40
57
60
47
46
34
21
18
26
41
31
2
-4
14
42
46
30
27
19
9
3
-8
-11
-4
22
40
38
19
-1
5
-7
-23
-29
-27
-26
-34
-22
-25
-39
-24
-17
-28
-35
-32
-16
-4
-4
-13
-14
-2
-2
-1
8
14
15
11
3
-9
-14
-3
9
9
6
2
-7
-3
5
2
-4
-6
-9
-12
-6
-9
-12
-8
-4
-1
-4
11
16
5
6
-14
-22
-14
-15
-13
-12
-9
-11
-2
5
11
11
7
17
18
11
4
-1
13
24
15
4
-1
-9
-10
1
3
1
2
11
17
7
11
22
16
9
6
-9
-20
-24
-27
-21
-8
2
2
11
23
27
25
8
-2
-9
-16
-17
-17
-14
-12
-4
1
-4
-6
-6
-12
-15
-16
-16
-4
7
12
8
-4
-9
-12
-10
-6
-4
1
-5
-7
1
7
3
-2
1
2
5
8
4
9
13
2
-5
-5
-10
-12
-11
-4
1
-11
-16
-14
-7
6
3
-6
-25
-26
1
24
31
27
24
31
48
47
38
21
6
-2
-11
-24
-41
-41
-40
-32
-23
-27
-21
-15
-6
-10
-12
-31
-92
-110
-74
-45
2
75
124
160
165
125
92
64
51
36
20
0
-29
-47
-70
-76
-77
-76
-70
-59
-49
-41
-32
-28
-21
-12
-3
-1
-4
-6
-4
-11
-19
-10
5
19
23
36
78
92
72
57
37
21
4
-1
-9
-12
-4
-22
-30
-35
-46
-46
-46
-37
-32
-29
-18
-11
-2
9
21
38
54
54
62
60
45
45
31
19
11
-9
-5
-1
-4
-3
-15
-24
-28
-21
-11
-20
-24
-17
-20
-26
-31
-31
-41
-52
-46
-31
-13
-14
-16
8
7
-18
-16
-2
4
6
15
24
21
16
7
4
1
-3
4
-6
-21
-23
-12
-4
-5
1
-2
-4
4
2
-13
-17
-6
4
9
5
-4
-14
-16
-11
-22
-32
-28
-14
8
6
-12
-16
-16
-1
23
59
77
66
42
13
11
-1
-11
5
9
4
20
33
6
-8
19
32
29
37
25
12
1
-21
-24
-12
-8
-14
-18
-21
-11
7
4
9
14
6
1
11
7
-1
-7
-14
-8
-14
-16
-12
-14
-9
-7
-4
-5
-9
-6
1
-1
-7
2
4
1
3
0
1
-2
-2
-12
-14
-2
7
9
-1
-4
-6
-9
-2
13
18
11
12
16
6
-19
-43
-55
-46
-29
-14
17
27
23
33
57
70
67
65
51
33
9
-11
-32
-49
-49
-58
-59
-64
-70
-65
-54
-32
-22
-20
-8
-1
-2
-7
-7
-5
-12
-6
32
62
67
72
72
51
9
-7
4
11
37
40
26
11
3
1
-11
-26
-61
-101
-122
-96
-75
-61
-12
22
55
104
147
164
156
154
132
103
55
-2
-44
-75
-72
-87
-122
-164
-178
-148
-135
-123
-109
-95
-83
-58
-24
4
37
51
59
58
49
57
57
47
44
20
0
14
19
11
2
-2
-1
4
12
16
17
14
19
16
5
-3
-9
-1
6
20
34
24
24
25
19
17
18
29
27
24
7
-3
23
24
26
31
18
9
-8
-12
-8
-7
-17
-25
-30
-49
-54
-54
-39
-9
17
31
25
33
21
-14
-35
-46
-23
14
31
9
-22
-41
-51
-45
-37
-38
-41
-41
-36
-16
-12
-8
-1
-5
9
12
-7
-24
-20
12
29
34
36
24
19
16
1
-5
-5
-6
-1
6
9
2
7
16
4
-12
-11
0
-9
-26
-30
-27
-24
-22
-31
-34
-12
-6
-7
1
16
22
24
28
4
-17
-23
-18
2
35
42
22
24
26
27
31
19
11
-14
-46
-42
-38
-52
-65
-75
-45
41
95
106
125
124
148
153
97
70
73
73
63
19
-72
-130
-70
13
9
-26
-39
-57
-72
-73
-28
47
100
127
109
70
21
-29
-89
-147
-163
-203
-229
-195
-153
-136
-115
-88
-59
-16
11
30
47
70
83
87
96
87
84
101
94
69
53
44
51
37
7
27
39
19
23
39
41
47
54
36
-27
-95
-118
-147
-94
-18
-12
24
43
37
7
-77
-147
-113
-27
24
47
34
26
14
-4
-10
-22
-43
-78
-80
-37
3
9
22
43
47
49
25
17
13
0
6
-7
-17
-34
-42
-33
-58
-57
-17
-2
0
-6
22
36
26
36
23
10
9
27
30
24
19
-4
-1
-1
9
6
-15
-11
3
29
36
41
54
33
-8
-44
-72
-95
-90
-87
-115
-167
-182
-140
-102
-41
62
201
299
332
307
249
253
239
186
110
7
-69
-131
-208
-255
-254
-243
-202
-162
-134
-96
-80
-62
-29
-1
52
80
59
64
46
29
31
14
17
22
18
30
45
38
44
49
44
37
26
21
22
30
16
2
-6
-16
-4
-8
-43
-99
-115
-87
-92
-130
-158
-98
36
162
214
238
309
340
299
234
160
82
-26
-146
-209
-246
-369
-546
-535
-287
-92
10
93
94
131
276
390
387
249
104
149
177
145
64
-31
-79
-168
-179
-133
-114
-107
-95
-115
-177
-204
-186
-153
-94
-52
-44
-22
-17
-16
4
27
42
46
26
-9
-16
-67
-218
-256
-94
-31
46
212
231
229
312
379
359
346
273
149
32
-93
-115
-140
-221
-272
-280
-274
-243
-147
-28
52
97
148
156
69
-46
-123
-173
-150
-14
99
157
189
148
9
-176
-85
118
134
152
105
69
68
32
-11
-90
-139
-173
-146
-152
-176
-223
-267
-163
-113
-69
60
215
317
320
337
267
178
161
69
-65
-115
-125
-188
-223
-190
-142
34
182
212
180
89
40
5
-9
-29
-65
-92
-118
-134
-127
-113
-93
-64
-44
-16
6
30
36
9
-25
-76
-57
-7
-9
16
22
37
67
27
-13
-17
-19
-38
-27
-21
-83
-123
-168
-135
117
325
452
530
476
410
287
127
-22
-115
-171
-285
-382
-366
-298
-229
-135
-75
-39
-16
-15
-26
-34
-31
-29
-33
-49
-29
2
26
42
49
51
64
66
15
-18
-17
4
31
47
59
55
64
64
55
58
47
19
-17
-26
-11
-15
-14
-4
-11
-20
-66
-77
-17
3
1
6
1
9
25
33
12
-9
-7
-9
-21
-20
-17
-21
-6
2
3
-5
-11
-6
2
19
15
12
12
7
-1
-7
-14
-31
-29
-29
-16
-3
-26
-30
1
21
8
-3
5
19
14
11
27
33
49
64
62
44
12
-13
-18
-23
-55
-95
-179
-261
-227
-122
-30
103
246
310
342
328
279
206
117
50
-34
-125
-211
-273
-274
-228
-174
-118
-94
-85
-53
-42
-25
11
19
12
22
38
40
32
33
41
51
46
37
32
22
11
4
1
-14
-17
-11
-14
-1
11
13
22
37
30
16
18
5
13
17
-1
-1
-5
-11
-16
-9
4
1
1
-1
-17
-21
-21
-19
-1
6
14
26
15
11
-19
-45
-30
-29
-17
-4
1
22
27
19
17
1
-17
-31
-19
14
22
29
35
27
6
-11
-17
-25
1
25
40
47
36
28
17
-4
-13
-4
-21
-44
-55
-64
-42
-1
17
-7
-13
13
17
1
-1
-11
-26
-15
-11
-12
-11
-8
-8
-7
4
24
22
0
-2
-8
-17
-12
-4
2
-8
-15
-7
4
2
7
16
16
19
22
11
4
0
-13
-17
-13
-6
1
9
4
-3
-3
-6
-17
-22
-10
-5
-2
2
-7
-16
0
1
0
22
17
7
12
19
25
15
19
16
3
7
6
4
9
-2
-12
-18
-16
-7
4
15
14
17
4
-12
-9
-6
-6
-12
-12
-14
-16
-10
-2
-10
-20
-12
-1
6
2
2
-1
-9
3
12
6
9
12
4
-7
-15
-16
-17
-15
-17
-28
-21
-13
-2
6
-4
-4
-4
-2
-2
6
13
17
39
22
28
47
23
6
-16
-28
-32
-34
-37
-49
-41
-22
-12
6
16
-1
-11
-9
-14
-9
0
4
7
-1
-3
-6
-9
-4
12
27
36
42
31
37
39
27
-1
-21
-34
-59
-52
-45
-22
10
19
19
-9
-26
-19
-11
-2
-16
-56
-37
1
4
-39
-160
-229
-193
-123
-42
83
231
349
392
367
370
371
331
235
104
-46
-179
-249
-331
-369
-307
-231
-197
-165
-133
-107
-70
-46
-18
-14
-6
11
6
-3
-41
-60
-37
-27
-1
86
150
165
148
19
-65
8
68
107
125
104
84
-7
-15
57
51
54
48
34
56
55
29
39
52
-7
-44
-62
-99
-107
-124
-133
-110
-90
-72
-60
-64
-65
-46
-36
-20
-28
-49
-6
36
27
47
115
148
143
121
92
72
38
11
14
-29
-77
-92
-111
-81
-68
-79
-80
-76
-38
-7
6
-9
-12
-16
-27
-20
6
36
33
30
21
18
2
-25
-46
-69
-45
-14
-5
-21
-36
1
15
-57
-106
17
150
183
236
246
205
140
85
87
101
71
-7
-29
-27
-73
-131
-229
-403
-515
-349
-139
-70
96
218
259
338
387
479
513
389
285
176
56
-66
-233
-328
-355
-390
-437
-407
-334
-228
-118
-80
-36
-18
-2
27
34
51
36
16
31
25
19
54
89
105
115
44
-18
49
83
57
46
13
-43
-101
-125
-104
-102
-104
-100
-166
-126
75
200
281
305
271
251
171
80
14
-18
-55
-92
-123
-140
-138
-120
-60
-32
-7
8
-1
4
20
26
14
-1
-18
-3
3
-21
-47
-86
-145
-176
-104
-32
7
78
173
258
243
233
243
174
85
26
-9
-32
-69
-123
-150
-166
-137
-84
-84
-107
-142
-101
-34
-3
44
51
26
13
27
31
28
1
-67
-105
-92
-39
21
92
138
181
211
177
130
92
59
16
-55
-143
-180
-170
-158
-120
-104
-111
-105
-148
-228
-268
-262
-137
55
167
208
180
263
439
511
514
406
306
203
61
-42
-120
-170
-213
-211
-206
-191
-191
-203
-191
-172
-140
-123
-94
-74
-58
-39
-44
-49
-4
22
32
59
26
21
27
29
25
16
36
48
67
74
71
62
52
47
54
59
44
43
33
24
26
14
13
19
19
11
14
-2
-32
-53
-69
-81
-84
-74
-75
-81
-109
-140
-108
-42
-11
10
31
31
59
104
99
55
-1
26
103
115
130
140
128
97
50
35
-14
-102
-97
-62
-64
-65
-82
-110
-134
-52
65
81
104
123
101
88
84
45
-22
-67
-105
-118
-115
-115
-79
-69
-85
-72
-37
12
21
-5
-19
-14
0
-27
-63
-71
-73
-80
-54
7
9
-6
5
12
58
92
95
46
-84
-204
-247
-125
90
246
345
380
349
238
107
124
142
31
-41
-100
-137
-74
17
65
46
-55
-115
-88
-120
-160
-183
-181
-179
-180
-123
-80
-63
-47
-19
-7
7
24
31
46
52
42
36
53
55
50
36
14
11
15
24
39
53
48
35
37
12
-17
-13
-19
-8
5
-6
1
-9
-14
-5
2
12
19
16
-3
-9
-23
-36
-34
-30
4
11
-4
-14
-29
-65
-128
-136
-74
21
75
119
166
175
175
152
145
123
96
65
-16
-46
-54
-87
-87
-78
-83
-85
-57
-29
-22
-12
-19
-29
-26
-31
-31
-32
-29
-16
-22
-22
-12
-22
-29
-16
-5
2
3
-2
2
1
10
18
21
16
4
7
-22
-23
-11
-2
16
-3
11
13
7
-3
-19
-6
1
14
23
22
13
13
16
9
9
7
-2
-1
-2
-7
-13
-27
-18
-7
-12
-34
-36
-9
20
24
-10
-31
-31
-30
-29
-22
-24
-10
22
12
-11
-11
-12
-22
-36
-32
-22
-17
1
6
11
7
-26
-44
-44
-49
-33
-5
22
52
75
85
49
14
24
34
7
12
61
53
31
32
41
46
7
-24
-24
-11
4
11
10
-22
-37
-24
-29
-31
-24
1
16
9
7
14
24
21
32
39
36
32
14
11
4
-16
-12
-9
-12
-6
6
4
-2
-14
-11
2
-12
-21
-11
6
1
-13
-19
-26
-21
-20
-19
-12
-9
-1
14
23
19
12
24
32
11
3
2
3
12
16
12
1
-17
-19
-14
-11
-6
-6
-27
-57
-58
-24
-6
12
51
41
21
42
64
61
41
17
-4
-16
-27
-41
-51
-42
-29
-11
-2
-12
-18
-23
-17
-2
2
-6
-7
-6
-9
3
19
19
-12
-31
-19
-9
13
30
26
20
7
-10
-8
-2
-6
-16
-44
-56
-22
-1
-9
-16
-7
30
40
9
6
39
62
73
78
51
19
-16
-29
-23
-36
-34
-27
-26
-19
-25
-24
-17
-18
-12
-11
-17
-22
-23
-16
1
9
9
12
10
11
5
11
25
14
12
11
7
4
1
2
2
1
-2
-9
-21
-24
-16
-1
10
12
14
-2
-16
-4
-6
-33
-54
-77
-94
-63
4
39
65
92
103
114
94
70
50
41
24
-1
-24
-43
-36
-50
-65
-67
-65
-73
-71
-37
-27
-20
-18
-11
6
7
-9
-21
-19
-1
19
31
36
16
11
22
12
11
12
0
-5
-2
-4
-12
-9
-6
-9
-1
2
1
2
2
5
6
6
3
1
-12
-11
7
4
3
2
-4
-1
-1
3
6
3
3
1
-1
0
-1
-1
-2
-9
-1
13
6
-4
3
-1
-2
3
-13
-34
-35
-29
-17
-3
4
17
15
13
21
9
-11
-32
-36
-5
23
41
43
30
35
26
8
4
4
6
4
-4
-19
0
16
7
-4
-19
-21
-25
-24
-14
-17
-19
-12
-6
-4
-2
-6
-11
-14
-16
-12
-8
2
5
0
1
-2
-4
2
5
7
3
-3
-1
6
2
3
6
0
0
-1
1
10
12
10
12
14
5
-4
-2
-7
-11
-4
-3
-11
-22
-17
-21
-30
-7
-2
-7
-6
-1
11
16
16
11
9
6
8
10
1
2
-2
-3
1
-2
-2
-6
-10
-14
-11
3
6
11
17
-12
-31
-24
-12
-7
-14
-6
14
31
38
19
9
21
17
12
4
-7
-3
12
22
12
-2
2
-6
-21
-6
1
-4
-4
-9
-9
-12
-21
-16
-16
-20
-1
17
16
12
19
17
9
2
-2
-2
-6
-4
-7
-7
-8
-2
2
-1
-1
-9
-7
-1
-4
-10
-12
-9
-7
-1
9
24
34
27
6
2
-4
-25
-17
-17
-29
-28
-26
-14
-14
-22
-27
-11
2
7
25
24
16
7
1
11
17
16
9
5
10
4
2
-1
4
1
-4
2
-2
-7
-11
-5
3
6
6
-3
-7
-7
-10
-4
-3
-5
14
13
2
4
14
22
21
19
17
11
9
12
17
20
14
2
-1
-7
-16
-19
-33
-39
-50
-52
-42
-46
-41
-27
2
15
17
23
21
26
29
22
24
30
31
34
24
7
-3
-6
-7
-24
-36
-42
-41
-32
-27
-25
-24
-15
1
2
-2
-4
-4
1
-1
4
-4
-13
5
2
-4
2
-1
16
16
3
10
8
10
12
13
14
-1
-1
2
-4
-5
-2
-6
-1
8
3
-4
-4
-1
1
13
20
12
2
-7
-16
-15
-9
-12
-27
-36
-39
-35
-27
-26
-24
-24
-18
-6
4
17
11
12
21
44
64
45
29
-2
-31
-29
-37
-44
-37
-24
-10
7
6
8
22
27
21
22
33
26
6
-12
-15
-17
-21
-24
-18
-2
14
26
30
36
37
29
13
7
7
2
4
6
6
11
16
8
0
7
-1
-8
-9
-19
-26
-26
-19
-22
-26
-19
-2
3
-1
6
3
-6
-5
-7
-10
-5
3
18
34
31
29
47
36
-2
-17
-37
-56
-49
-35
-31
-36
-24
-17
-22
-17
-8
-3
-11
-17
-19
-22
-22
-30
-25
-16
-5
13
19
21
14
26
40
32
48
54
33
29
20
6
-4
-12
-10
-17
-20
-18
-18
-7
21
35
25
27
24
16
13
9
2
-5
-13
-29
-37
-31
-42
-44
-32
-24
-3
9
11
7
-1
-14
-29
-19
7
21
26
22
17
23
19
73
105
36
-9
-47
-87
-106
-127
-114
-97
-74
-56
-45
-19
-2
11
13
21
31
32
39
50
57
59
60
52
47
47
41
31
25
21
12
12
11
2
3
4
1
-7
-9
-9
-16
-15
-8
-1
-7
-3
2
-9
-8
-9
-19
-16
-4
0
16
24
14
13
4
2
14
-6
-43
-55
-65
-64
-34
-2
2
1
7
7
27
25
14
18
4
14
23
-17
-54
-65
-72
-66
-51
-50
-53
-47
-47
-42
-37
-22
2
27
51
59
60
47
38
28
9
-7
-22
-51
-54
-8
12
18
22
24
38
36
27
22
29
29
27
34
35
43
29
21
24
17
13
11
17
21
21
36
70
79
49
12
-26
-45
-50
-60
-67
-44
-1
2
-9
-19
-25
-28
-37
-35
-16
32
67
43
24
-5
-52
-51
-60
-74
-64
-42
-17
0
2
-1
-2
-5
4
4
10
22
19
7
-2
1
17
15
-1
4
9
17
39
39
21
7
-9
-23
-20
-16
-15
-4
9
22
22
17
7
-2
-4
-8
-3
0
2
17
11
-7
-6
-9
-28
-41
-44
-42
-36
-26
-12
-1
8
11
14
14
-4
-8
2
0
7
-5
-24
-17
-2
9
-11
-34
-51
-32
16
22
10
9
14
26
35
41
23
-2
14
33
35
51
44
9
-20
-28
-42
-53
-49
-50
-24
9
19
18
17
21
-9
-13
15
17
11
11
15
-6
-17
-17
-15
7
7
-2
5
9
12
16
11
6
9
-1
-7
-6
-6
-14
-9
-2
-4
-6
-4
4
-14
-11
-14
-24
-2
-17
-18
6
18
21
19
18
7
1
-7
-7
2
-12
-23
-31
-42
-35
-56
-47
-33
-47
-51
-55
-55
-49
-43
-47
-24
1
21
37
9
17
35
30
23
15
26
27
17
4
11
21
25
33
27
17
12
18
4
24
47
26
40
38
17
32
54
53
32
19
13
17
12
7
7
4
9
8
7
10
16
17
13
21
11
-9
-12
-6
-7
-7
-9
-11
-9
-10
-10
-12
-17
-19
-14
-8
-2
1
2
-1
-8
-6
-12
-16
-9
-6
-11
-9
0
0
-1
-3
-7
-5
6
27
43
12
-27
-27
-16
2
3
20
10
-31
-24
-22
-19
12
19
-1
-29
-41
-30
-20
-2
1
-1
-13
-24
-16
-19
-20
-6
-3
-14
-17
-19
-21
-21
-30
-37
-36
-29
-16
-24
-23
-13
-8
5
16
14
5
24
44
49
54
53
41
17
11
4
1
8
11
7
10
11
4
7
9
27
48
54
48
22
1
-2
-10
-18
-23
-32
-25
-22
-37
-37
-25
-12
-9
-12
-12
-18
-11
-4
-3
-1
-10
-24
-21
-14
-12
5
14
31
45
25
8
3
-8
-17
-19
-21
-2
32
39
-3
-46
-32
-24
-36
-51
-54
-10
17
14
12
2
-5
4
17
21
29
27
37
38
29
31
14
4
9
9
-4
-5
-4
-17
-35
-55
-54
-34
-19
-11
-1
12
28
7
-36
-14
9
-17
-14
-15
-16
1
9
42
70
76
57
31
44
39
11
-6
-24
-55
-126
-203
-223
-183
-124
-68
-13
44
95
147
201
223
236
275
232
135
46
-61
-135
-208
-241
-200
-158
-124
-94
-67
-24
40
82
86
41
-43
-46
20
66
98
94
61
38
36
-1
-28
-23
-105
-155
-71
21
75
107
104
72
14
9
27
-4
-6
-24
-49
-49
-53
-46
-50
-44
-37
-37
-24
-16
-19
-12
11
13
-11
-29
-28
-11
-3
-11
6
20
30
46
55
64
6
-54
-36
27
58
40
-7
-29
27
26
19
54
46
27
7
1
-20
-17
-26
-55
-30
-28
-64
-86
-95
-94
-62
2
39
63
70
48
51
19
-27
-38
-42
56
137
113
112
108
85
27
-3
-9
-25
-32
-67
-110
-147
-117
-36
12
-12
-79
-63
4
54
112
111
82
65
33
3
-26
-54
-85
-109
-101
-83
-55
-27
-14
0
-9
-31
-20
-1
11
30
50
39
26
8
-2
22
24
24
28
32
49
47
29
6
22
41
16
-14
-29
-17
-9
-26
-5
23
9
-2
-5
-13
-34
-49
-45
-51
-67
-16
48
51
51
33
20
-5
-22
-11
17
41
34
34
26
14
-3
-11
-10
-17
-25
-27
-27
-40
-23
-20
-32
-21
-8
-4
-6
-11
-6
15
5
0
16
12
-6
-27
-27
-6
7
19
16
9
2
14
23
13
5
-1
-4
-4
-8
-5
7
4
7
-5
-22
-11
4
12
1
-9
-16
-18
-22
-14
9
24
29
-4
-2
17
0
-6
-34
-27
16
24
30
16
-4
-7
-11
6
12
2
-32
-57
-42
-32
-16
14
23
9
10
17
28
29
24
7
-23
-22
-16
-6
2
10
9
-22
-32
9
25
4
12
21
18
2
9
29
36
24
-8
-9
-13
-32
-45
-41
-30
-10
14
9
1
-4
-2
-18
-34
-19
-10
-1
-4
-16
-17
-23
-22
-10
-16
-25
-25
-26
-20
-17
-15
-9
16
26
13
-2
-19
-10
-10
-20
-5
-13
-31
-34
-19
12
26
45
81
125
145
162
169
135
92
50
8
-32
-59
-79
-98
-106
-95
-81
-67
-49
-45
-39
-38
-34
-20
-9
-15
-46
-42
4
52
94
129
168
185
139
54
1
-18
-31
-33
-67
-100
-115
-122
-108
-90
-57
-36
-18
1
16
31
37
41
31
31
28
24
25
14
11
6
-1
-2
11
19
11
2
-1
14
12
-1
-6
7
17
9
12
14
9
6
2
-4
1
-11
-34
-40
-30
-22
-24
-17
-5
-2
-19
-19
-7
-2
12
22
16
7
11
6
1
2
-3
-5
-22
-29
-18
6
46
32
14
7
-13
-16
-33
-32
-15
12
11
-6
-1
1
-2
-6
-9
-21
-19
-4
-5
-8
3
0
-25
-22
-6
7
1
5
22
13
6
-4
10
19
6
10
2
-4
-11
-17
-14
-20
-19
0
6
1
-5
-9
-6
-15
-9
1
-2
6
15
34
36
16
20
18
7
12
11
9
6
3
-2
-4
-5
-12
-14
-21
-21
-27
-51
-52
-31
-6
26
55
56
47
58
59
57
61
49
27
5
-8
-12
-17
-16
5
32
11
-2
17
4
-21
-40
-34
-29
-42
-30
-32
-47
-46
-56
-62
-64
-70
-52
-14
1
1
24
24
10
2
-9
3
17
17
14
8
4
9
4
-2
6
2
-11
-12
-11
-14
-7
-2
22
49
47
39
7
-16
-30
-35
-7
1
-5
-10
-2
14
19
-3
-4
2
-3
12
17
11
-2
-4
-4
-11
-17
-12
-2
-3
3
-2
-5
-4
-9
-6
-4
-9
-12
-18
-30
-11
14
13
29
32
11
16
16
26
39
32
30
12
-1
4
2
-2
-1
1
6
21
30
22
13
7
1
-9
-15
-24
-34
-47
-64
-72
-52
-36
-21
-6
-10
-14
-10
6
4
32
75
80
85
65
39
17
-28
-57
-75
-74
-56
-49
-43
-36
-4
29
28
36
39
19
17
6
-6
-15
-40
-48
-59
-65
-72
-80
-61
-52
-46
-54
-51
-34
-4
30
42
51
65
100
141
156
147
110
54
22
24
28
-9
-43
-68
-130
-133
-104
-109
-117
-80
7
75
135
160
150
122
76
38
-10
-45
-64
-69
-84
-123
-119
-115
-130
-116
-94
-51
-9
27
79
113
118
95
64
46
45
56
55
69
75
73
63
49
42
11
27
43
4
-1
-21
-50
-64
-112
-132
-102
-92
-105
-115
-72
-25
0
71
118
135
106
49
81
125
125
130
99
-69
-208
-146
-82
-68
-47
-16
-22
-28
-30
-68
-86
-94
-56
-55
-45
-6
-29
-55
-47
-34
-41
-23
-17
-36
-39
-28
-14
-19
16
62
71
89
79
64
55
37
42
38
14
23
31
29
27
25
20
5
-6
-22
-24
-26
-14
1
2
-1
-1
3
-14
-10
-4
-19
-41
-35
-11
-28
2
37
41
38
16
20
16
-2
3
28
36
19
21
27
3
-20
-14
-1
-13
-26
-29
-38
7
43
32
55
62
68
84
48
-5
-11
-1
-17
-49
-68
-64
-50
-21
-13
-7
-9
-15
-9
9
26
19
11
-13
-21
-24
-37
-29
-30
-48
-60
-51
-58
-26
8
4
53
69
62
47
25
-2
-41
-81
-198
-219
-147
-122
-93
-64
-19
22
47
55
65
72
80
95
92
82
65
52
44
71
90
83
101
81
53
37
-17
-56
-45
1
27
22
32
19
-9
-39
-46
-22
-12
-4
-1
12
20
7
7
-2
-24
-1
13
6
28
42
37
29
26
22
-4
11
27
2
-18
-49
-67
-71
-51
-57
-78
-68
-53
-37
-21
16
41
36
31
54
51
46
67
48
34
15
4
4
-14
-16
-10
-3
-24
-28
-7
-17
-26
-31
-33
-29
-21
-19
-27
-26
-10
12
29
27
19
12
-23
-39
-17
-1
36
46
26
26
16
5
16
20
12
20
13
5
2
-6
-9
-22
-23
-28
-64
-85
-99
-91
-54
-16
29
54
50
40
25
13
-1
-9
-6
-11
8
32
35
37
27
-1
-12
-1
25
11
-22
-4
-8
3
4
-20
-16
-8
17
12
5
11
11
24
31
36
27
31
50
33
-12
-39
-33
-36
-41
-32
-32
-24
-12
-4
2
-4
1
-4
-4
-6
-7
29
32
-1
-12
0
24
35
23
38
53
12
-39
-65
-79
-100
-104
-62
-52
-64
-59
-62
-49
-31
0
21
22
15
-9
-11
16
24
31
60
31
-12
5
49
85
119
137
110
70
62
57
-6
-64
-75
-68
-87
-96
-88
-98
-82
-64
-59
-44
-31
-21
-27
-27
9
57
95
86
55
54
48
37
36
25
3
13
22
15
31
6
-23
-4
-27
-59
-61
-51
-15
22
59
75
61
61
62
53
45
23
-16
-44
-77
-99
-101
-96
-77
-54
-44
-64
-64
-7
22
19
26
21
34
26
7
19
14
-12
-57
-72
-60
-62
-20
42
75
100
130
127
83
60
46
47
87
127
119
70
32
-49
-119
-127
-125
-119
-118
-94
-51
-57
-47
-6
-26
-17
22
11
-6
-11
-21
-20
0
4
6
16
31
34
45
59
46
41
31
9
4
3
-7
-14
-12
-20
-34
-31
-11
8
21
17
14
27
26
8
-12
-46
-44
-21
-17
1
1
-20
-9
23
46
61
55
26
5
-42
-97
-99
-58
-22
2
26
22
24
39
4
-13
10
-1
-29
-42
-26
-21
-37
-30
-14
-2
7
4
-9
-17
-7
15
42
65
44
12
44
56
42
15
-35
-42
-13
-7
19
40
27
14
6
26
30
33
40
21
6
-19
-59
-103
-128
-111
-51
18
55
50
12
1
13
27
32
11
16
9
-11
-30
-64
-65
-63
-68
-47
-21
-7
-5
24
41
37
69
109
123
89
27
-14
-10
0
4
11
2
17
22
9
-29
-60
-59
-54
-59
-61
-36
-34
-11
-1
-2
8
-21
-12
26
38
48
34
24
45
24
-6
-32
-71
-59
-18
9
37
51
51
44
14
-9
-16
-51
-51
-3
7
11
7
-7
0
-23
-61
-90
-103
-79
-28
27
75
129
166
156
106
62
39
-14
-84
-120
-158
-195
-205
-153
-57
23
123
164
143
128
77
53
25
-13
-41
-72
-102
-145
-125
-74
-34
-19
-16
2
34
86
99
81
61
62
55
47
42
26
6
2
44
32
0
6
-19
-40
-46
-44
-29
-16
-18
-24
-27
-17
-11
-20
-13
-11
-28
-17
9
22
52
87
74
37
6
-14
-17
7
31
17
-36
-103
-89
-39
-30
-15
9
5
-2
-4
-32
-38
-24
-14
3
4
16
31
35
27
7
-20
-58
-62
-19
3
4
19
36
26
9
2
-13
-13
-24
-31
-2
29
46
49
36
27
43
43
20
6
-2
-14
-9
-20
-39
-27
-27
-27
-18
-4
-5
-15
-3
-7
-2
4
4
19
24
12
-3
0
-12
-27
-29
-8
26
44
41
26
14
-21
-24
-4
-12
-6
12
12
-6
-5
7
2
-2
13
13
-7
-12
-24
-31
-29
-37
-36
-43
-36
-23
-15
7
19
34
47
56
80
68
39
11
-11
-30
-57
-66
-68
-46
-30
-26
-14
-15
2
13
12
5
11
22
27
51
61
58
46
15
-24
-52
-46
-11
27
27
-1
-29
-55
-63
-57
-37
-31
-47
-21
1
-11
15
26
19
46
57
62
55
24
17
18
-2
-16
-6
-3
-14
-20
-12
-11
-11
-9
-21
-24
-14
7
19
12
10
9
-2
11
22
24
29
18
7
-27
-46
-6
67
89
72
60
32
-19
-60
-84
-113
-113
-89
-64
-50
-25
2
6
22
47
51
45
44
22
-9
-34
-46
-32
-11
-2
2
6
7
12
4
0
-3
-4
-9
5
48
64
68
41
-11
-52
-51
-9
28
53
24
-21
-9
26
46
58
56
28
8
-21
-47
-31
-18
-21
-50
-65
-74
-88
-75
-47
-15
-4
1
-8
-7
-4
-18
-21
-7
17
34
58
58
33
27
14
4
14
9
0
7
12
17
8
-9
1
7
-1
5
16
3
-2
-11
-10
8
-2
-2
-16
-39
-12
15
11
-6
3
-6
-39
-47
-44
27
87
79
66
-9
-59
-32
-37
-73
-62
7
49
32
19
52
64
22
-13
-44
-65
-67
-27
32
67
85
55
46
75
64
39
-14
-52
-60
-99
-113
-110
-90
-62
-33
-8
-10
0
3
13
17
1
-12
-29
16
66
48
39
12
-24
19
51
29
27
41
82
91
42
2
-29
-22
1
6
9
-33
-92
-92
-52
-7
-3
-36
-29
-24
-35
-27
-32
-32
-28
-59
-95
-74
6
76
107
115
138
139
115
95
44
-7
-34
-12
6
-31
-57
-68
-52
-34
-36
-31
-51
-74
-60
-38
-28
-13
-1
-1
-31
-68
-39
2
8
10
31
69
82
76
62
34
12
-24
-44
-6
54
97
89
40
-14
-53
-68
-88
-85
-31
46
59
31
30
49
43
53
49
-21
-22
-16
-43
-38
-34
-30
-27
6
42
47
59
5
-65
-80
-80
-70
-99
-107
-83
-64
-34
-1
16
23
41
61
68
35
16
22
44
58
46
53
44
26
7
-5
-7
-19
-24
-26
-21
-35
-45
-30
-25
-6
51
100
108
96
90
87
69
43
-12
-57
-79
-107
-118
-116
-101
-80
-66
-47
-31
-28
-10
9
32
33
16
14
17
36
29
21
15
-7
-19
-39
-11
19
-2
4
36
51
46
54
63
59
62
73
64
36
12
-36
-80
-82
-108
-119
-80
-63
-59
-48
-20
-14
-4
29
40
57
61
59
81
104
92
34
-17
-41
-39
-30
-65
-108
-128
-107
-42
21
56
94
130
129
103
52
12
-26
-46
-62
-96
-115
-117
-97
-90
-72
-31
-11
-12
-6
23
49
51
35
43
29
-27
-39
-21
-16
-17
30
116
165
150
92
62
59
85
110
55
4
-19
-27
-8
-29
-68
-107
-139
-143
-144
-109
-59
-21
-22
-37
-52
-55
-2
7
4
-7
-58
-72
-43
15
75
89
72
100
120
110
89
91
113
100
80
35
7
-2
-21
-42
-77
-100
-111
-97
-85
-71
-59
-93
-101
-99
-77
33
84
90
74
26
77
103
104
124
114
80
21
-16
-72
-105
-113
-103
-67
-69
-74
-67
-54
-73
-87
-31
22
43
64
60
62
78
78
77
44
-26
-84
-75
-16
42
72
57
42
34
5
-8
-12
-14
-19
-44
-44
-42
-41
-9
12
21
14
4
-8
-20
-16
-42
-52
-56
-26
17
-22
-16
-6
-44
16
117
155
153
127
99
70
17
-37
-60
-42
-38
-55
-55
-46
-30
-9
1
-24
-82
-142
-169
-135
-72
-3
36
52
46
27
62
108
152
146
83
9
-40
16
29
-6
16
5
-6
-21
-27
-27
-47
-52
-57
-45
-33
1
31
27
-5
-22
-14
-28
3
20
27
22
-4
-1
48
148
155
102
51
-3
-69
-148
-181
-215
-205
-144
-87
-22
22
51
55
55
67
75
60
55
54
9
-40
-56
-14
39
45
38
47
74
90
75
70
52
6
-29
-51
-41
-39
-39
-22
-1
-6
-45
-132
-212
-145
-62
-46
12
70
91
79
72
67
36
22
29
42
40
17
-7
-9
4
27
44
26
27
43
32
-51
-136
-150
-138
-133
-108
7
87
99
133
145
119
70
9
-57
-75
-93
-126
-134
-121
-51
26
54
80
74
36
16
15
62
78
33
31
21
-49
-110
-102
-27
65
121
118
102
65
9
-38
-90
-123
-146
-172
-157
-75
-34
-24
4
20
50
63
65
47
30
54
67
57
8
-46
-77
-99
-93
-85
-44
39
75
119
139
120
123
65
5
12
57
42
12
14
-28
-40
-46
-55
-59
-51
-30
-34
-54
-96
-111
-94
-66
-22
27
12
-6
53
86
85
52
-7
-26
-8
-6
-7
-24
-46
11
75
119
139
133
96
36
30
24
-5
-80
-157
-130
-84
-64
-42
-17
-11
-38
-54
-32
-8
-4
25
59
54
63
47
29
37
10
-13
-29
-39
-62
-97
-75
-19
12
1
-34
-52
-16
9
13
44
18
29
107
123
130
118
84
39
8
31
50
36
-17
-73
-104
-110
-93
-68
-54
-41
-46
-75
-90
-81
-60
-51
-15
26
44
55
61
62
52
36
4
-6
7
39
85
70
40
3
-42
-31
41
84
67
57
13
-39
-54
-53
-55
-63
-74
-85
-64
-53
-46
-15
-6
-5
9
19
32
51
36
21
17
6
5
-12
-31
-40
-24
7
24
50
46
57
54
24
48
39
-13
-62
-84
-60
-7
24
44
70
22
-7
65
112
54
-72
-165
-156
-149
-130
-64
-19
53
121
162
174
122
89
38
-16
-22
-49
-108
-158
-153
-114
-76
-41
0
30
45
41
34
15
-27
-44
-26
20
49
36
46
39
-12
-29
-61
-37
101
142
119
111
85
68
25
-6
-57
-120
-146
-165
-137
-64
-76
-155
-71
130
201
207
166
44
-52
-39
40
64
39
-44
-69
5
17
30
14
-64
-152
-238
-244
-265
-200
-54
-76
22
241
253
242
278
333
320
217
102
-4
-48
-55
-70
-107
-110
-120
-150
-146
-135
-150
-56
64
55
6
-56
-7
7
-26
52
92
44
3
37
17
4
-23
-74
-44
-35
-42
-38
22
32
10
42
47
24
-16
-7
-37
-78
-79
-104
-103
-60
-12
8
39
41
11
9
38
31
31
77
88
107
96
80
87
85
32
-80
-143
-128
-69
-28
-22
4
25
-16
21
22
-48
-92
-137
-102
-34
79
188
206
146
-2
-105
-3
125
166
160
107
75
29
29
98
94
1
-46
-104
-170
-203
-236
-245
-281
-234
-188
-157
-100
-88
-49
3
37
43
39
29
37
52
70
100
67
37
6
-6
51
64
52
69
77
69
60
65
7
-97
-77
-1
-22
-9
101
146
101
41
46
129
119
21
-41
-117
-157
-139
-150
-118
-77
-2
66
71
90
55
18
-34
-73
-107
-137
-94
-67
-40
-54
-43
-24
7
79
103
129
62
0
75
114
107
115
84
32
2
41
103
57
-31
-22
-26
-55
-51
-104
-163
-243
-202
-65
-49
1
39
46
32
-37
-52
-31
-1
25
54
80
90
83
123
193
169
120
70
26
-24
-58
-34
-44
-76
-101
-100
-64
-22
-12
-11
-39
-92
-87
-46
-51
-45
2
11
34
58
84
82
27
-7
14
21
-97
-154
-64
37
51
58
147
220
253
243
200
70
-44
-57
-111
-233
-324
-287
-216
-136
-94
-95
11
70
90
132
130
140
79
-9
31
75
57
44
-1
-29
-49
-75
-121
-138
-45
-14
4
60
64
51
17
7
31
36
27
8
-42
-90
-119
-164
-201
-136
-32
-16
24
100
168
171
100
40
45
79
75
92
68
21
-5
12
37
-14
-9
9
17
34
11
12
-11
-82
-113
-31
2
-52
-78
-82
-21
25
69
69
-53
-162
-189
-90
32
63
69
117
122
72
39
35
27
-7
-21
-42
-45
-45
-35
-14
-22
-26
-47
-34
-22
34
109
57
17
-17
-33
-20
-12
12
6
-47
-76
-83
-79
3
-3
52
196
224
236
175
120
92
57
-21
-175
-238
-215
-198
-211
-182
-145
-112
-61
-35
44
90
62
94
150
145
88
53
32
-52
-105
-36
-25
-72
-67
-80
-21
113
178
182
137
87
105
82
-21
-146
-153
-69
0
57
31
1
1
14
-4
-81
-162
-190
-178
-158
-60
31
125
165
102
61
25
-31
-31
30
13
-14
-19
20
81
93
117
91
48
-26
-51
12
2
-22
-83
-95
-16
-33
-74
-67
-89
-162
-161
-90
-9
65
123
125
-29
-140
-70
52
158
228
201
140
132
115
98
58
-3
-32
-70
-83
-98
-114
-106
-132
-140
-124
-70
-34
-82
-133
-127
2
91
97
134
123
92
58
77
78
-46
-130
-125
-148
-134
-64
-15
55
38
-2
54
52
-13
-83
-110
-66
-69
-75
-6
56
37
28
84
143
171
146
147
134
14
-17
46
36
-3
-46
12
65
29
-5
-42
-49
-77
-78
-51
-19
10
-31
-52
-36
-11
29
70
87
80
57
40
52
33
11
42
41
-2
-9
6
21
8
-27
-84
-155
-113
-81
-61
1
0
22
5
-7
-13
-30
-7
-9
-36
-137
-193
-92
74
182
234
290
267
245
242
181
72
-73
-113
-113
-197
-244
-191
-146
-132
-123
-117
-112
-115
-82
-41
-15
-1
6
21
27
32
-16
-106
-71
82
130
124
123
95
55
-24
-7
30
42
25
-26
-63
-55
51
106
91
52
32
0
-6
42
27
26
34
51
67
21
-33
-73
-137
-173
-191
-215
-171
-89
11
72
59
-11
-62
53
160
87
-29
-27
52
94
153
148
115
69
27
80
26
-66
-138
-187
-129
-63
6
31
-1
-40
-69
-135
-297
-268
-11
99
205
386
402
334
235
146
93
-1
-69
-147
-199
-138
-102
-80
-128
-219
-264
-293
-228
-84
6
-12
-103
-168
-128
9
160
157
109
178
209
169
171
152
52
-64
-30
68
79
96
81
60
44
51
100
51
-66
-168
-169
-107
-84
-49
-60
-107
-132
-117
-52
-1
39
57
39
-4
-6
57
84
-6
-90
-66
-71
-62
29
45
32
58
155
241
234
168
41
-35
-160
-329
-296
-138
-9
176
415
438
275
169
90
-31
-158
-206
-151
-69
-110
-190
-165
-122
-111
-52
27
11
-6
16
14
-25
-64
-31
2
-1
-2
-8
11
41
53
46
31
16
2
-19
-38
-46
-54
-31
9
-4
-46
-45
20
72
87
93
80
42
-13
-52
-118
-203
-170
-104
-87
24
122
143
144
80
41
24
20
-9
-47
11
48
37
6
-67
-82
-51
14
132
220
207
142
99
48
2
-72
-137
-140
-128
-84
-59
-62
-52
-55
-67
-81
-77
-47
-16
12
30
24
-1
-22
-3
32
67
87
80
66
29
6
-16
-65
-128
-123
-22
11
8
-13
-105
-55
90
115
136
130
95
72
4
-34
-5
44
-4
-52
-31
-4
-19
-39
26
32
12
-10
-65
-104
-118
-47
12
31
72
96
81
55
26
-9
-70
-170
-223
-150
-54
-16
35
34
-7
-27
2
60
44
62
65
36
0
14
162
181
113
87
12
-51
-59
-72
-130
-89
-23
-54
-54
-13
22
27
49
84
87
58
7
-13
-47
-121
-146
-92
-17
18
5
-9
10
29
39
60
89
55
10
72
114
106
87
39
-22
-84
-121
-154
-186
-241
-231
-31
137
165
203
226
210
171
104
-11
-82
-52
-45
-39
-46
-64
-44
-53
-89
-151
-170
-102
-30
-32
-90
-147
-137
6
143
198
205
169
152
135
109
89
37
-2
-32
-87
-115
-146
-193
-198
-180
-130
-41
79
175
143
113
89
-8
-1
58
109
168
165
145
81
11
-7
-34
-142
-227
-186
-156
-125
-51
-18
-21
-17
32
36
1
-25
-61
-46
-46
56
171
139
119
51
-24
-55
-7
39
-15
-66
-150
-158
-68
-28
-21
28
68
105
139
72
-29
-84
-64
-30
-37
-11
46
107
153
104
57
19
-61
-95
-52
-67
-199
-150
-29
-44
-27
19
71
107
138
170
154
126
47
-34
-85
-173
-185
-147
-150
-104
-38
-94
-150
-84
51
196
282
344
347
324
279
169
69
-38
-171
-281
-322
-358
-337
-207
-101
-28
48
109
130
159
178
115
-12
-82
-85
-106
-55
-5
-6
-27
-65
-32
-14
2
25
17
14
-3
0
12
11
-5
2
13
10
19
-3
-30
-37
-17
27
46
51
72
72
45
-47
-197
-185
-17
75
110
126
110
95
77
79
35
-42
-72
-57
-22
-4
-34
-118
-87
-2
19
72
70
50
64
80
76
24
-50
-133
-142
-124
-133
-104
-61
-37
7
35
37
79
79
64
74
41
-53
-165
-206
-141
-85
-113
-31
89
115
149
247
329
310
291
213
53
-102
-196
-223
-282
-297
-205
-89
-1
52
93
97
56
17
-6
-29
-79
-107
-28
73
91
53
39
49
27
-11
-20
-22
-36
-17
3
-5
-14
-17
-29
-38
-18
1
11
22
19
0
-7
-1
1
4
2
7
8
6
11
6
-7
-6
4
-7
-13
-2
0
-11
-30
-42
-39
-6
26
34
31
12
-12
-25
-44
-45
-11
31
59
31
-17
-34
-9
-17
-92
-112
-14
61
86
143
146
110
110
125
137
128
43
-104
-207
-284
-245
-152
-157
-180
-236
-148
-14
19
89
229
384
392
397
343
191
51
-90
-220
-390
-424
-299
-138
-14
21
41
58
52
22
29
46
13
-8
2
35
32
-7
-4
0
-31
-71
-145
-134
-17
87
180
213
224
200
82
-21
-38
-72
-154
-210
-199
-136
-128
-64
45
29
89
152
151
129
55
135
184
147
97
1
-41
-59
-49
-106
-134
-83
-41
-61
-162
-181
-77
60
96
104
63
-18
-27
-19
-15
-41
-53
-91
-103
-64
-37
17
34
28
14
-1
-6
-33
-39
-46
-44
-2
51
97
115
101
69
26
-16
-29
-16
-19
-11
6
-2
3
34
68
49
8
12
11
19
30
4
-10
2
16
-9
-34
-24
-12
-23
-49
-43
-42
-51
-36
-28
-27
-17
-6
1
21
30
12
4
8
3
4
4
2
1
-14
-12
-11
-7
7
12
23
26
29
32
27
23
27
21
3
3
1
-11
-25
-21
-14
-35
-46
-30
-10
-34
-86
-124
-144
-147
-175
-122
63
138
146
198
251
294
239
186
176
145
58
-44
-69
-107
-186
-196
-128
-117
-134
-157
-140
-64
56
146
42
-37
-34
-24
59
100
81
113
178
194
140
5
-89
-153
-185
-77
-34
-46
-57
-86
-118
-196
-124
21
38
-11
-77
-2
94
99
147
180
199
178
176
143
55
-13
-88
-117
-131
-142
-150
-133
-112
-77
-19
-6
14
25
24
21
11
-18
-61
-65
-72
-37
-14
-41
-31
-132
-232
-146
-25
38
56
99
190
272
378
470
456
382
267
121
-49
-132
-173
-294
-365
-331
-212
-127
-53
-75
-228
-231
-86
-41
-97
-59
14
112
203
244
281
228
142
44
-69
-130
-137
-143
-126
-49
-10
2
23
36
37
12
-24
-29
-5
-5
-42
-39
20
52
56
32
-30
-82
-61
-37
-39
-26
31
53
-9
-20
-1
56
119
162
154
92
63
16
-5
-39
-115
-135
-132
-131
-114
-100
-75
-65
-64
-16
0
6
23
45
149
253
282
243
157
90
24
-53
-123
-150
-137
-131
-124
-118
-64
-5
-4
-5
-13
-19
-48
-90
-64
-14
-49
-95
-57
49
119
117
127
153
207
233
196
122
50
0
-48
-88
-142
-170
-200
-255
-235
-140
-82
-86
-92
-111
-91
36
180
225
258
282
256
267
239
127
12
-49
-86
-128
-152
-145
-135
-123
-82
-53
-45
-34
-26
-27
-48
-118
-188
-161
-80
-51
-30
19
57
128
213
257
237
146
110
99
33
44
58
14
-16
-29
-52
-101
-125
-161
-168
-121
-105
-110
-110
-64
-5
24
62
89
86
49
-3
-67
-141
-101
26
104
139
139
132
131
137
146
99
17
-48
-99
-115
-118
-136
-150
-166
-140
-102
-61
16
80
153
141
44
26
78
101
98
85
60
27
-12
-2
1
-32
-84
-235
-410
-386
-218
-80
88
241
310
327
342
393
340
215
90
-53
-127
-178
-222
-237
-253
-198
-141
-114
-62
-36
-20
17
89
147
115
45
-15
-43
-45
-62
-46
-17
-47
-83
-71
-19
6
34
74
54
27
16
18
26
29
36
14
-49
-136
-165
-189
-163
-39
5
63
139
183
243
285
284
243
206
126
51
-9
-42
-71
-142
-135
-112
-123
-140
-166
-200
-238
-201
-133
-78
-48
-29
32
64
91
65
55
153
143
154
229
195
163
153
106
52
-4
-71
-93
-106
-122
-123
-110
-93
-109
-99
-74
-76
-42
25
36
-9
-60
-31
17
38
39
-77
-167
-133
-36
91
136
126
90
41
95
161
166
183
130
59
55
42
-6
-111
-339
-582
-513
-321
-225
-62
22
120
248
345
524
553
430
258
67
-47
-70
-47
-46
-128
-210
-197
-160
-87
-8
41
15
-55
-92
-107
-114
-117
-99
-128
-139
-140
-185
-95
-33
-80
-34
6
36
132
234
258
250
291
261
227
234
164
54
-52
-136
-213
-234
-192
-175
-141
-93
-89
-88
-55
-11
21
26
29
32
32
49
57
52
19
1
4
-4
12
13
3
2
1
2
10
19
4
1
-16
-22
15
29
22
4
-7
-6
-48
-107
-145
-142
-116
-20
90
148
231
241
191
144
117
69
-11
-46
-75
-120
-145
-121
-133
-228
-342
-258
-32
53
133
165
105
61
41
100
142
170
244
221
126
100
112
88
29
2
-12
-77
-117
-134
-172
-173
-140
-154
-183
-186
-168
-137
-129
-98
-48
-7
19
34
77
82
60
64
73
77
19
-96
-201
-206
-97
-16
-42
4
195
263
213
227
316
339
233
215
169
-45
-224
-326
-420
-384
-190
-31
140
303
418
418
243
27
-231
-372
-224
-36
29
60
62
45
74
138
70
-67
-41
-34
-123
-170
-158
-182
-219
-132
-84
-51
-54
-138
-115
-109
-88
-25
19
87
116
135
139
119
62
14
13
11
-3
2
26
30
41
29
15
27
35
46
41
31
32
21
-1
1
6
-4
-11
-6
9
14
8
-9
-16
-12
-5
-1
-9
-12
-12
-17
-25
-27
-11
-6
-17
-9
11
22
14
8
6
2
-4
-11
-9
-5
1
1
-13
-44
-64
-89
-111
-109
-68
-2
13
-17
-95
-128
-87
9
125
189
190
148
174
165
131
157
168
141
70
72
97
44
-16
-57
-122
-216
-283
-257
-231
-242
-198
-157
-99
-54
-66
-46
-2
20
46
140
190
150
85
14
42
81
80
68
64
88
85
69
33
-4
-42
-64
-101
-147
-127
-111
-182
-376
-510
-267
110
298
428
451
378
294
207
88
-90
-191
-163
-70
7
48
115
203
284
342
180
-36
-170
-249
-248
-282
-253
-208
-248
-330
-251
-30
125
298
406
372
247
168
146
47
-64
-118
-143
-184
-235
-232
-116
-72
-49
72
93
58
29
4
-71
-118
-76
-46
1
21
7
12
17
27
36
51
44
24
24
30
32
29
38
38
32
44
42
16
12
21
2
-4
-16
-33
-22
-9
0
2
0
-18
-17
-2
9
12
-9
-24
-22
-15
-10
-16
-17
-12
-30
-32
-20
-19
-3
-3
4
19
10
0
-21
-36
-30
-7
14
27
19
3
-7
-59
-103
-90
-52
-32
-6
42
29
-22
-39
-16
50
84
103
169
186
129
87
55
-17
-48
-45
-82
-128
-139
-128
-180
-218
-189
-125
-24
94
147
104
132
263
365
372
306
178
18
-34
-50
-111
-178
-238
-228
-178
-164
-135
-157
-146
-35
32
91
94
58
67
80
76
39
-48
-140
-153
-130
-94
-42
-15
-44
-102
-28
95
45
20
36
26
143
216
185
133
26
-107
-127
-34
-12
27
263
426
420
445
354
167
-14
-192
-379
-549
-511
-389
-276
-104
11
16
5
-23
-51
-39
-80
-104
-80
-69
3
94
120
121
132
162
140
75
21
-26
-31
-24
-6
17
4
-8
-16
-16
-9
-17
-19
-1
7
0
6
10
2
-3
10
18
2
10
22
10
5
-3
-11
-11
-11
-2
-12
-30
-28
-37
-62
-77
-108
-136
-97
-46
31
105
120
115
67
37
19
-77
-193
-185
-112
-86
-22
164
348
345
300
360
376
314
259
67
-112
-130
-142
-213
-281
-304
-328
-269
-187
-165
-155
-100
-46
-16
48
47
45
49
-10
-139
-267
-206
-89
-67
-58
39
148
269
470
542
471
313
196
142
41
-31
-138
-226
-261
-293
-273
-233
-198
-133
-53
-6
31
-39
-150
-110
-25
41
82
112
151
163
130
105
87
65
28
-27
-24
-7
-13
-107
-261
-294
-238
-149
-41
7
72
199
287
350
347
326
308
249
203
151
94
-79
-315
-372
-259
-190
-105
-13
6
31
26
16
-29
-47
-44
-72
-117
-193
-174
-115
-126
-125
-138
-166
-143
-121
-90
-17
105
223
279
346
360
299
231
152
32
-100
-169
-194
-163
-111
-118
-122
-77
-27
7
29
27
20
-3
-37
-49
-142
-213
-105
-9
70
159
138
67
-70
-231
-291
-277
-142
107
369
561
630
620
572
470
301
75
-145
-311
-452
-506
-460
-398
-322
-209
-104
-40
-7
-16
-34
-31
-14
3
21
-14
-61
-2
80
112
123
121
114
102
97
106
70
-8
-44
-12
-2
14
42
17
2
-2
19
7
-37
-59
-62
-36
-23
7
42
64
72
31
-28
-28
-7
11
32
10
-21
-84
-229
-445
-449
-261
-162
17
216
337
400
401
383
319
251
132
34
40
52
52
19
-37
-107
-155
-148
-138
-141
-169
-200
-229
-292
-292
-180
-89
-40
-73
-174
-120
82
262
378
432
407
375
333
276
173
32
-82
-218
-309
-349
-352
-279
-204
-125
-65
-37
-25
-34
-24
4
35
9
-12
11
34
84
102
31
-16
62
110
85
64
32
4
-12
14
56
118
146
126
139
91
49
28
-27
-57
-94
-117
-148
-173
-160
-129
-104
-88
-77
-72
-48
-39
-43
-94
-117
-45
47
123
102
-47
-312
-359
-107
60
213
350
428
475
442
427
341
228
125
-21
-182
-309
-340
-321
-261
-110
-1
17
42
69
77
27
-44
-85
-120
-157
-163
-161
-133
-76
-35
11
32
31
49
67
64
59
54
32
9
10
21
31
41
36
21
13
11
6
-3
-4
-6
-16
-6
-4
-15
-1
17
3
-69
-137
-145
-127
-139
-169
-107
0
72
145
192
273
438
525
481
392
248
90
-41
-153
-261
-357
-424
-471
-461
-400
-328
-261
-175
-62
19
112
135
23
12
176
312
387
401
307
233
161
74
14
-57
-118
-168
-173
-128
-84
-92
-235
-442
-539
-455
-229
33
298
486
607
601
382
221
186
135
54
-39
-134
-170
-100
-52
-33
-66
-136
-158
-243
-277
-288
-334
-233
-107
-112
-231
-284
-152
63
266
209
210
388
425
507
533
438
309
165
12
-146
-239
-274
-287
-319
-322
-289
-197
-99
-63
-12
4
-57
-112
-99
-135
-116
62
113
128
165
167
118
57
98
130
175
192
169
100
39
83
79
2
-12
-8
-86
-117
-74
-90
-112
-80
-41
-49
-72
-65
-91
-120
-85
-98
-159
-143
-81
-24
9
22
28
-26
-54
-28
-1
44
84
134
152
124
106
85
82
74
28
-26
-43
-33
-51
-82
-136
-180
-135
-77
-35
27
22
9
9
20
41
-15
-107
-130
28
184
229
287
292
273
217
154
122
30
-115
-241
-332
-334
-222
-138
-75
4
61
143
197
201
161
86
15
-41
-74
-110
-141
-155
-140
-127
-103
-54
-23
11
31
43
54
52
50
54
59
53
44
38
27
11
15
39
55
60
54
38
13
2
-6
-11
-2
0
-8
-22
-17
-17
-21
-20
-21
-18
-17
-2
-6
-28
-29
-32
-29
-17
0
4
-14
-53
-120
-175
-147
-87
-21
47
30
52
207
312
339
345
273
156
64
-32
-117
-163
-200
-236
-261
-228
-151
-105
-89
-62
-47
-44
-29
-21
-15
-22
-67
-152
-267
-251
-135
-19
161
264
324
380
385
374
319
274
158
39
-33
-115
-166
-220
-221
-203
-203
-198
-189
-173
-203
-223
-235
-133
111
306
423
450
438
375
274
178
70
-49
-190
-279
-314
-334
-335
-276
-220
-268
-306
-186
-55
24
133
165
143
127
196
253
217
175
90
46
55
88
130
149
147
113
42
-34
-78
-129
-168
-182
-198
-205
-222
-202
-186
-208
-123
-26
11
56
71
79
37
-72
-90
-13
10
35
122
148
109
124
201
258
255
243
229
175
113
-14
-147
-176
-190
-233
-238
-179
-114
-123
-186
-224
-235
-196
-84
37
115
234
355
363
378
334
236
112
-92
-210
-223
-168
-65
9
35
60
80
87
82
28
-68
-162
-235
-311
-330
-253
-123
16
118
171
123
-10
-97
-44
48
129
249
325
353
331
275
218
118
14
-97
-201
-291
-339
-363
-385
-357
-306
-218
-89
22
108
163
157
155
175
160
127
79
28
-22
-43
-22
-42
-44
-19
-14
-29
-17
27
40
65
122
178
185
123
53
3
-97
-236
-271
-191
-109
-23
32
96
125
92
89
60
17
-29
-36
-34
-55
-55
-92
-151
-95
23
46
82
106
78
47
-4
-36
-53
-62
-54
-28
-35
-39
-43
-45
-29
-14
-1
-23
-19
9
85
107
99
102
65
124
168
146
79
22
-30
-84
-66
-72
-69
-59
-81
-95
-84
-82
-79
-64
-73
-53
-10
44
97
133
100
39
16
-14
-33
-64
-41
47
84
76
34
-19
-14
47
91
99
55
10
-19
-59
-37
-41
-52
-36
-43
-55
-85
-79
-58
-58
-58
-51
-31
-27
-15
10
-3
-13
6
12
12
6
9
16
17
12
-2
17
19
-26
-79
-95
-79
-76
-92
-146
-132
-21
125
266
342
392
395
317
222
225
228
139
79
-28
-107
-125
-171
-201
-218
-227
-238
-231
-210
-177
-145
-120
-69
-19
-4
-14
-11
-12
-17
-9
-12
-26
-15
21
30
24
32
32
27
40
37
32
29
19
27
19
21
31
51
70
59
55
54
51
41
27
-3
-62
-101
-113
-117
-77
18
84
81
87
116
146
188
220
244
223
150
72
27
16
-31
-83
-109
-134
-164
-182
-208
-221
-203
-195
-205
-185
-112
-78
-80
-91
-89
-2
92
171
204
218
216
175
168
120
41
-23
-114
-191
-183
-130
-99
-56
-35
-44
-49
-27
31
42
-21
-64
-74
-96
-118
-108
-105
-57
25
-14
-71
-113
-162
-156
-32
186
284
304
342
349
297
261
218
118
17
-83
-146
-212
-268
-306
-330
-342
-344
-189
65
266
448
572
610
574
423
246
115
-9
-138
-276
-334
-304
-248
-135
-36
2
5
-29
-59
-42
-9
12
11
-13
-48
-51
-60
-72
-26
-13
-21
26
46
-19
-75
-89
-70
-52
-69
-82
-55
16
69
132
183
160
130
119
81
-36
-131
-146
-145
-113
-27
46
38
55
137
174
151
95
16
-82
-157
-147
-155
-170
-130
-111
-96
-49
6
14
21
60
71
51
32
34
15
-4
-16
-24
-22
-49
-62
-36
1
5
-8
-12
-15
-45
-100
-85
-26
14
66
109
107
77
48
32
22
-6
-29
-37
-41
-3
39
63
57
38
25
-1
-9
-60
-196
-243
-173
-102
46
204
294
314
302
314
261
198
153
125
83
36
11
-54
-77
-82
-114
-126
-99
-117
-190
-205
-210
-216
-206
-157
-99
-64
-21
25
59
67
62
52
37
17
17
25
22
13
19
38
45
46
31
22
11
1
6
8
12
-6
-28
-34
-26
-27
-34
-14
-16
-54
-115
-102
-4
47
97
127
127
118
70
49
38
25
8
-44
-97
-137
-145
-99
-51
-17
24
70
92
109
125
94
45
-2
-36
-57
-80
-100
-123
-134
-116
-64
-39
-11
14
6
9
7
6
1
9
24
8
-6
-14
-13
13
44
57
60
59
42
37
25
0
-17
-47
-44
-17
-26
-34
-60
-77
-56
-50
-52
-26
28
37
14
37
76
74
87
120
136
158
128
89
54
-12
-95
-131
-102
-93
-79
-86
-94
-31
18
29
7
-27
-30
-51
-69
-61
-42
1
27
37
44
52
41
23
19
3
-29
-63
-75
-59
-46
-46
-21
24
30
24
42
74
95
89
92
71
28
8
-9
-31
-54
-60
-77
-109
-125
-108
-53
21
87
133
179
203
184
117
34
-33
-74
-87
-112
-150
-141
-130
-117
-45
-16
-1
13
6
15
7
-21
-48
-68
-112
-114
-37
15
39
49
32
36
57
72
118
168
197
232
202
165
152
110
62
-17
-109
-181
-224
-264
-259
-182
-85
-12
22
-6
-52
-52
-48
7
57
23
29
62
90
153
195
165
100
60
16
-29
-68
-106
-114
-130
-141
-108
-77
-76
-77
-54
-19
3
25
30
27
18
9
19
31
60
66
59
55
47
47
36
3
-37
-62
-55
-62
-68
-36
-24
-20
-1
-1
-29
-41
-25
-47
-83
-60
22
82
149
238
278
253
200
181
142
70
15
-57
-163
-242
-258
-257
-236
-186
-143
-94
-49
-22
4
5
2
19
24
11
6
11
22
51
70
91
122
135
132
115
98
51
-12
-34
-41
-60
-75
-82
-89
-78
-72
-57
-29
-19
-15
-6
22
25
15
14
15
21
11
-12
