44
68
26
-17
-97
-85
-1
90
154
123
63
0
8
-46
-118
-77
-70
-46
-34
-49
-63
-21
109
121
-15
-85
-61
6
69
22
-21
-8
26
39
23
34
6
-3
-1
-2
2
1
22
51
75
33
-37
-81
-82
-23
14
-5
-1
26
34
49
46
24
-21
-67
-66
-46
-29
-5
52
33
-25
4
11
12
25
21
11
-14
-12
5
29
57
79
75
7
-59
-89
-111
-74
26
66
72
58
-11
-54
-76
-49
-37
-33
6
-6
3
12
9
6
20
45
65
115
45
-66
-112
-100
-14
3
3
24
13
21
25
-9
-36
2
19
7
-2
-24
9
34
17
12
26
16
-13
-13
-18
-18
-36
-40
33
48
-4
7
47
67
52
21
2
-74
-104
-77
-100
-14
65
-3
-27
9
17
5
31
74
91
92
74
-6
-77
-67
-76
-96
-69
-6
11
-15
6
-1
50
90
13
29
100
2
-34
27
-64
-105
-65
-35
11
21
16
51
99
49
-32
-75
-17
32
-9
-2
56
99
39
-18
-37
-59
-21
54
165
120
-34
-143
-188
-80
-12
-12
-15
5
87
117
21
-32
-62
-195
-134
-2
46
140
180
99
-46
-71
-68
-34
35
-33
-81
-61
1
32
-4
-4
-21
4
120
196
88
-29
-24
-8
-15
-84
-113
-108
-44
46
37
46
7
-46
-44
-5
19
-7
38
126
115
54
65
-34
-114
-79
-95
17
81
67
87
63
89
34
-72
-63
-113
-216
-91
82
63
-9
-47
24
145
100
-7
1
-42
-61
-34
-37
82
157
187
195
11
-210
-212
-144
-128
-12
10
16
64
76
173
39
-161
-120
-117
-119
-19
63
145
146
-16
-89
-65
-118
-90
19
36
27
16
-8
16
42
50
22
-25
-27
-21
71
218
170
63
-9
-196
-207
-42
13
29
11
-33
-97
-85
29
85
86
114
150
42
-16
-7
39
125
-42
-136
-243
-281
-4
85
95
61
-44
-132
-51
215
328
182
-115
-132
-61
47
157
-8
-14
-27
-89
-12
0
-26
-84
-37
-4
-91
-28
-22
-51
13
9
37
89
154
145
49
-110
-217
-42
99
71
1
-36
61
115
47
-107
-183
-105
27
4
-95
32
12
-11
63
-107
-159
21
175
130
37
108
257
245
85
-95
-296
-252
-97
-24
3
30
118
67
29
67
-39
-123
-79
-104
-108
-21
37
46
-22
-21
2
9
67
46
22
27
76
37
-81
6
25
-46
-45
16
188
273
211
-17
-218
-300
-336
-188
-35
57
116
67
-65
-75
-32
-139
-70
69
115
79
12
84
232
310
19
-73
-10
-146
32
52
-22
50
38
139
175
14
-130
-256
-318
-94
9
42
105
-4
13
-2
-12
-4
5
40
42
71
24
82
19
-104
-88
-92
32
131
96
54
14
-158
-183
11
4
-35
32
61
157
194
51
-62
-132
-138
-49
-48
-33
103
180
114
5
-35
-140
-129
42
59
-23
-186
-118
150
84
7
-60
-77
195
310
212
-49
-215
-243
-200
69
14
-238
-155
-51
-3
100
159
105
44
110
124
55
-9
56
162
64
143
193
-18
-74
-343
-511
-261
-56
57
17
68
140
132
-9
-115
89
22
-145
-58
51
164
166
193
63
-167
-57
-21
-42
21
111
203
84
-132
-347
-290
-135
-51
75
154
220
61
-124
-195
-191
56
68
19
239
218
94
-34
-218
-152
4
115
261
205
90
-79
-286
-24
198
7
-59
155
150
-1
-25
-245
-415
-221
92
134
100
143
144
159
67
-125
-165
-54
1
-23
-262
-310
-53
2
7
-3
1
42
64
119
109
103
140
157
51
-50
-16
-12
22
74
86
-27
-164
-125
-95
43
42
-99
-17
43
122
123
62
-17
-36
32
-39
19
15
-37
32
59
26
-110
-170
-152
-98
-14
-25
-41
-12
-49
14
94
26
-37
-100
-87
74
177
155
116
57
57
56
-34
-52
-106
-198
-8
95
-23
-40
-12
195
188
-14
-97
-147
1
50
70
15
-95
-83
-88
1
29
65
24
9
66
24
54
109
130
81
21
-12
-114
-374
-321
-6
82
135
11
-169
-30
83
58
132
42
-50
34
-4
139
286
64
-130
-150
-120
19
103
120
45
-126
-177
-222
-139
76
252
339
161
-32
-145
-94
104
26
-139
-192
1
255
113
-119
-322
-328
-107
-110
-65
198
312
242
100
-68
-156
-152
-29
175
232
86
-57
-94
-39
79
124
90
28
-44
-42
-31
-144
-259
-158
102
341
372
227
93
-52
-303
-456
-401
-270
-85
3
62
180
142
23
38
167
205
44
-24
213
298
-58
-377
-396
-148
94
49
13
52
85
74
11
59
60
-50
-84
-19
14
-38
-42
20
83
114
125
74
-41
-112
-192
-117
9
9
24
14
94
198
316
199
-146
-46
-9
-223
-73
120
100
-50
-170
-235
-336
-160
94
67
89
209
253
142
-90
-175
-186
-182
-42
21
-7
46
66
55
36
-16
-15
134
220
76
-42
-152
-164
-9
145
190
52
-54
-104
-233
-220
1
2
39
175
44
7
54
103
211
119
-114
-159
-44
-95
-47
86
109
119
34
-76
-125
9
64
-73
-122
-82
-29
137
212
46
4
-44
-178
-97
-52
-34
104
222
167
-70
30
54
-94
135
-53
-288
-144
-123
-16
-51
-41
6
-118
-114
-45
-69
87
612
678
120
-141
-44
130
519
166
-652
-792
-703
-298
-44
-90
46
97
152
94
12
39
71
107
89
95
99
79
61
59
59
42
28
14
12
32
136
175
77
-34
-84
-26
-39
-52
-28
-59
-32
-23
7
37
24
16
-31
-69
-59
-5
24
18
14
94
195
314
229
-218
-227
-122
-132
24
-125
-37
19
-167
-116
-178
-114
-46
-76
44
36
14
42
66
95
150
227
52
-84
-26
17
67
-50
20
207
79
25
61
-4
-113
-110
-60
-182
-222
-81
-39
-21
35
21
14
19
29
28
56
91
59
51
72
94
61
25
-5
-172
-191
-43
80
243
129
-65
-131
-167
32
232
127
-67
-232
-374
-88
154
-8
-18
77
147
144
163
88
-57
-49
-153
-193
29
127
49
82
200
330
71
-179
-308
-579
-255
-34
222
613
165
-130
-191
-451
-190
188
52
39
173
14
-4
62
-86
11
224
87
-13
-63
-145
88
119
-51
-42
-90
1
33
318
485
14
-162
-426
-466
-261
-275
-32
-30
84
271
216
82
-33
22
-61
190
343
-144
-253
-88
-125
63
185
85
427
771
309
-213
-344
-469
-181
-94
-412
-180
93
169
67
-82
-109
-74
154
230
34
-253
-238
-121
-78
50
71
110
111
122
170
190
190
57
-30
17
-31
-205
-147
23
47
56
54
147
160
-1
-19
-52
42
100
-121
-65
-132
-124
-85
-265
87
305
484
355
-168
-367
-537
-394
-120
74
212
219
387
591
-144
-569
-184
-413
-250
-164
-156
51
-54
43
26
138
144
149
77
-69
112
76
95
82
42
-10
-97
68
81
27
92
21
-73
0
-17
-15
52
97
206
87
50
25
-170
-69
75
61
-89
-234
-52
56
10
32
15
153
37
-220
-214
-394
-187
187
153
276
362
207
-112
-389
-351
-56
156
-11
-51
89
57
-12
81
158
-20
-51
-105
-228
-93
35
119
234
142
-89
5
21
-76
9
47
106
9
-17
52
-111
-160
-51
-8
14
34
66
140
118
17
-38
-97
-52
47
58
137
165
-14
-107
-56
-26
140
250
-168
-365
-201
-205
44
140
-3
-24
-111
-60
134
-26
-166
8
-27
-16
85
68
40
2
-2
33
169
386
540
415
3
-519
-665
-398
-184
1
-14
-62
24
81
188
165
12
6
10
-73
30
58
-12
66
54
-85
-109
-49
-6
61
47
88
132
52
37
84
270
437
311
78
-392
-761
-461
-216
-103
18
-58
-17
36
1
-12
74
74
63
205
311
247
-12
-159
-268
-281
-60
-30
-36
8
10
117
173
142
95
162
366
421
242
-134
-579
-574
-170
16
99
18
-225
-127
-24
-66
2
72
164
295
183
-92
-222
-254
-122
114
154
124
76
3
-7
-56
27
112
157
284
172
-44
-149
-215
-75
139
223
439
109
-486
-386
-442
-327
45
37
156
94
-19
11
-32
142
238
95
-7
58
125
52
-11
-152
-317
-197
-124
-66
95
-7
-22
41
68
170
289
388
189
-73
-212
-355
-222
-27
-176
-160
-11
25
125
90
-6
-52
40
164
178
293
318
45
-207
-281
-434
-222
217
197
40
-132
-174
-147
-185
-16
108
142
138
69
242
143
-168
113
184
-83
12
-161
-419
-154
-1
9
150
172
294
462
496
393
-151
-607
-589
-701
-509
-64
-95
-29
59
47
125
87
87
93
37
1
132
239
219
188
157
188
33
-130
-137
-79
29
31
205
375
198
-19
-248
-432
-359
-240
-96
255
648
612
80
-244
-470
-548
-117
-54
-99
165
325
396
89
-197
-11
92
-22
-105
-285
-444
-320
-193
-179
-26
120
152
161
190
300
223
227
376
213
574
979
187
-228
-511
-1060
-479
-427
-607
-165
-212
-92
22
169
281
13
-68
-147
64
510
446
169
227
86
-339
-487
-520
-357
1
256
270
167
150
155
329
473
119
-132
-66
-44
374
343
-298
-587
-819
-442
-11
-134
69
232
452
605
240
-177
-287
-192
-80
-19
-276
-309
-54
22
160
260
383
554
620
391
-160
-625
-657
-3
731
744
136
-665
-1160
-757
-108
-117
-125
-173
-147
202
351
431
272
96
-20
-115
63
263
541
457
-74
-428
-647
-419
141
279
315
320
354
360
-130
-443
-503
-536
-295
137
339
210
91
-92
-232
-79
65
74
282
437
562
593
136
-447
-803
-691
-341
-82
-49
-93
129
426
399
26
-182
-369
-387
28
190
99
2
43
112
106
296
268
-17
-58
10
22
69
-33
-192
-96
58
130
101
82
57
-149
-351
-568
-424
-143
-105
28
99
329
678
584
66
-223
-349
-139
358
-1
-235
140
589
529
-317
-701
-746
-175
340
-80
-100
-37
-42
147
175
302
295
-67
-305
-475
-451
-36
122
130
132
108
175
122
112
156
129
51
-45
-58
-20
71
295
326
112
215
253
-136
-333
-521
-521
-52
83
213
370
160
-231
-421
-241
-165
-39
-54
-97
-17
-36
70
79
132
190
82
62
152
151
89
235
393
203
-255
-455
-429
-117
507
355
-133
-299
-442
-68
445
485
338
64
-505
-803
-587
-331
-88
-19
34
110
76
127
107
87
107
183
320
355
323
315
117
-164
-186
-386
-504
-261
46
237
36
-100
-129
-120
11
41
87
91
93
80
93
117
32
25
41
77
207
230
9
-90
-31
-185
-255
-167
-167
-157
-15
42
16
152
225
101
-67
-42
105
198
220
97
2
46
46
-52
-189
-281
-345
-475
-368
-189
-44
203
169
64
44
28
99
142
278
663
732
228
-153
-621
-755
-238
-285
-36
544
416
193
-117
-290
-263
-350
-335
-195
-111
7
81
54
79
74
110
109
112
130
119
160
228
323
292
182
74
-57
-20
-6
-280
-329
-247
-259
-31
-30
-150
-66
82
218
183
129
-9
-186
-173
-4
185
245
163
124
122
64
7
-15
-195
-471
-327
-184
-26
278
117
15
-42
-133
-93
283
1312
1640
697
-600
-1665
-1800
-1005
-263
-14
-32
-62
1
124
222
195
171
190
171
259
604
953
623
44
-280
-681
-463
-124
-307
-171
-144
-118
161
303
481
577
483
55
-369
-557
-642
-280
7
-97
-115
-60
37
70
79
117
107
112
46
-15
100
265
267
199
152
19
-124
-198
-116
69
-42
-84
-11
-220
-203
-127
-154
43
182
159
64
-66
-164
-159
-50
-9
66
170
223
238
384
938
929
129
-449
-1035
-1009
-235
-114
-287
-335
-500
-422
-73
116
155
261
263
212
122
72
135
97
90
205
393
492
283
-26
-124
93
265
113
-292
-675
-685
-561
-277
7
46
130
120
97
109
112
133
101
79
52
66
57
36
31
54
114
103
69
75
24
-26
62
186
361
238
-145
-422
-748
-571
-83
-32
-34
41
123
143
89
93
42
6
19
138
212
240
220
-93
-182
-229
-427
-145
83
2
12
-10
20
11
0
59
47
39
36
61
73
72
71
88
115
153
233
305
280
37
-273
-472
-534
-449
-195
-13
9
51
42
67
66
44
70
59
70
57
37
19
9
32
38
41
42
39
24
17
-9
-37
-16
-19
-36
-30
-23
-27
-24
-7
6
19
23
31
51
87
84
38
-1
-38
-62
-104
-130
-84
-31
-43
-72
-67
-53
-1
26
25
44
53
42
23
43
77
61
-1
-14
-22
-42
-10
7
37
66
68
66
43
4
-32
-21
18
37
20
-1
-25
-58
-57
24
149
115
-34
-123
-235
-277
-27
180
46
-48
-79
-175
-99
51
89
76
27
-76
-108
-28
41
61
49
41
31
34
39
26
19
20
31
46
65
51
10
-17
-9
85
152
81
1
5
-34
-92
-112
-166
-122
34
109
132
176
120
-74
-188
-165
-125
142
388
190
-68
-291
-533
-604
-319
80
163
133
103
85
68
75
149
316
576
509
409
461
130
-212
-171
-90
-225
-454
-491
-358
-432
-652
-390
161
309
256
291
102
-191
-207
-197
-195
-24
71
61
137
164
144
171
237
315
335
273
121
73
74
-115
-218
-59
-97
-309
-255
-51
47
5
-58
-73
1
53
27
-2
-44
-17
67
100
99
117
102
83
43
-27
-31
-16
7
-6
-106
-201
-145
-1
110
174
157
110
20
-7
-9
-215
-350
-225
-66
52
57
-6
16
1
-44
1
32
-26
3
85
61
76
75
14
12
-11
-27
-2
-6
6
21
25
22
15
24
27
19
9
4
-14
-29
-9
11
6
-42
-64
-19
8
11
22
11
9
26
18
11
3
-16
-29
-34
-24
-6
-9
-31
-44
-37
33
132
149
127
61
-44
-91
-78
49
155
74
-74
-258
-342
-205
21
155
185
90
-67
-160
-243
-155
34
81
68
39
32
70
94
90
47
31
23
13
27
24
47
41
11
6
-9
4
21
11
-15
0
17
-9
5
17
-12
-32
-24
-44
-47
-19
-25
-5
13
-10
-31
-29
-12
22
90
137
93
89
115
14
-82
-133
-218
-201
-37
134
209
112
-14
-159
-379
-222
56
34
19
6
0
27
32
59
69
54
62
100
58
-16
-26
16
41
47
31
-19
3
32
22
14
9
-6
-31
-26
-13
-16
-17
-4
11
27
83
129
77
-24
-108
-180
-188
-105
-51
1
161
275
232
149
-38
-286
-307
-170
-144
-43
82
46
49
18
-17
-4
2
38
31
36
61
165
271
185
90
-1
-185
-178
-19
-52
-68
14
-52
-94
-81
-145
-143
-41
44
92
67
36
39
-22
-22
69
129
125
47
11
32
-17
-81
-71
-66
-39
46
101
149
76
-90
-150
-187
-87
139
191
99
-66
-205
-170
-47
25
32
37
69
54
39
78
108
96
26
1
-19
-30
-26
-24
102
199
154
27
-93
-136
-133
-111
-103
-178
-190
9
102
28
7
57
-21
-184
-130
-34
1
42
59
82
110
190
200
118
54
-51
-129
-175
-163
-78
-15
53
31
-11
-6
37
154
232
203
73
-44
-201
-264
-135
-100
-49
12
-15
-9
-21
-10
13
33
44
36
39
32
29
14
36
54
68
119
112
41
-28
-39
-18
12
51
24
-80
-140
-127
-145
-102
-24
6
46
32
36
16
14
47
4
43
115
125
49
-21
-73
-134
-2
155
117
-46
-141
-140
-124
-16
37
9
30
51
87
34
-32
59
90
-25
-130
-114
-81
-69
-14
-72
-61
33
29
59
76
105
94
-5
-37
-59
-85
-41
11
37
47
77
123
73
1
26
31
-7
-32
-79
-100
-46
7
43
51
-8
-22
49
122
144
155
109
-7
-47
-136
-261
-230
-196
-152
-19
32
46
169
388
468
129
-250
-381
-453
-312
-31
72
154
251
205
55
-94
-155
-159
-51
28
31
54
21
52
62
46
69
53
68
67
17
-7
24
51
34
54
68
-20
-89
-104
-152
-100
-7
-29
-5
39
18
51
61
-14
3
22
-36
-18
-1
17
28
4
-5
-40
26
130
67
-71
-104
-102
-131
1
232
367
188
-120
-218
-361
-264
12
39
110
81
9
11
-85
-23
72
11
-46
-38
25
120
118
17
-35
-91
-93
1
40
46
31
-14
5
32
35
40
21
-12
-23
42
170
213
14
-189
-236
-275
-73
225
204
51
-76
-180
-155
-53
-40
41
184
178
76
51
22
-131
-107
-71
-127
-48
46
74
14
79
130
-2
-62
-62
-27
35
35
2
-9
-16
19
4
-100
-127
-105
-12
63
117
210
67
-83
-94
-109
-7
84
79
36
27
39
81
122
54
20
3
-37
-76
-117
-97
-61
-9
69
63
-31
-75
-64
-69
-36
21
51
130
219
326
222
-135
-240
-295
-227
79
150
218
61
-315
-142
20
-87
-42
-142
-232
-150
-73
36
114
125
135
152
132
92
60
-18
-135
-79
32
17
40
42
39
75
61
27
4
-17
-29
11
40
29
7
-39
-71
-34
11
40
48
-41
-64
51
147
94
-70
-127
-73
56
159
111
92
81
-72
-197
-188
-219
-207
-64
-9
41
47
-88
-86
10
66
99
72
30
4
34
21
2
43
57
61
28
23
13
-1
23
57
118
54
-66
-146
-142
42
160
49
-107
-89
-16
56
175
105
-32
-79
-66
-32
-37
-39
-102
-70
4
-51
-56
-42
-45
-9
-19
6
160
318
155
-65
-74
-177
-71
91
19
-9
-29
-66
-63
6
54
34
64
150
160
102
16
-127
-142
-47
-104
-124
-66
-74
21
62
64
119
3
-75
-37
4
34
26
37
13
8
61
98
92
6
-66
-47
-87
-102
-5
-21
-36
19
28
69
60
-11
-44
-108
-126
-47
-20
-11
141
356
243
-47
-89
-190
-303
-77
110
27
-54
-40
-6
-10
-31
-1
12
29
76
76
90
91
11
-18
-37
-76
-42
31
172
279
248
15
-187
-208
-218
-29
-3
-91
-4
-31
-4
-14
-76
-1
59
6
-23
45
60
51
5
-9
4
-85
-124
-99
15
104
43
29
66
39
-4
4
29
53
47
4
-37
-48
-1
39
41
54
32
12
89
108
158
231
-41
-185
-199
-379
-165
0
-86
-69
-127
-63
57
89
158
220
177
1
-124
-159
-127
-62
-26
76
104
40
2
23
51
-5
24
1
-44
24
9
2
29
7
-6
-13
-16
1
10
37
39
8
4
38
77
99
30
-130
-164
-54
8
-3
8
12
-2
49
79
26
22
-17
-152
-102
-33
-46
2
82
85
-20
-20
-31
24
105
47
36
7
-30
-34
21
81
65
46
11
-26
-12
48
61
56
6
-111
-123
-90
-52
-57
-170
-211
-171
-86
89
106
35
43
42
51
45
62
109
106
101
187
174
23
17
139
131
-69
-210
-370
-427
-187
-54
0
41
49
87
74
95
134
237
243
41
-116
-203
-222
-115
31
43
17
-7
-28
9
27
21
-23
-6
68
57
-59
-105
-77
-175
-144
21
111
166
105
71
122
62
26
157
295
303
70
-208
-261
-204
-114
-25
-8
22
27
17
104
126
1
-105
-151
-247
-212
193
377
134
-89
-250
-287
-187
-80
-35
16
93
117
124
124
76
37
-4
-84
-151
-157
-54
36
61
55
62
123
58
-17
28
-5
-22
25
-62
-90
110
202
82
56
11
-94
-45
-85
-130
-51
4
21
-1
-27
-52
-54
-29
34
83
67
83
93
105
178
109
-44
-102
-188
-110
137
101
-69
-160
-252
-96
71
-23
50
153
104
55
-59
-167
-125
2
99
140
34
36
114
-42
-65
-97
-238
-162
-91
81
346
317
175
7
-155
-147
-79
44
38
-97
-112
-126
-62
123
164
56
-11
-125
-144
-12
-1
9
19
29
70
77
126
128
46
-14
-90
-178
-134
-9
46
75
66
67
60
6
-17
-83
-80
-21
-15
5
15
7
5
3
9
9
-7
-12
1
6
12
23
18
12
12
8
17
59
122
124
67
-15
-155
-209
-162
-133
-70
3
11
48
89
49
-5
-26
-6
18
51
63
32
91
184
64
-82
-47
-77
-82
-21
-99
-63
47
34
97
105
9
18
-70
-165
-62
1
29
54
-8
-84
-55
-28
-98
26
122
37
37
-43
-139
-99
2
32
43
62
-6
-2
52
164
251
134
16
-54
-104
-54
15
169
343
114
-155
-138
-239
-205
-96
-24
88
-18
-77
-41
-172
-239
29
167
109
38
-3
85
70
76
52
-80
-21
256
359
134
-43
-137
-336
-424
-260
-159
-62
105
168
195
87
-49
-119
-114
16
142
170
70
26
-74
-184
-66
58
168
325
207
-96
-173
-273
-175
54
-12
56
77
-42
-34
24
45
1
-1
-27
-40
22
84
107
97
62
6
24
71
68
-2
-6
4
-114
-120
-104
-47
172
169
-6
-53
-121
-97
-22
-110
-132
-46
124
143
-26
-52
-64
-17
72
62
34
-67
-117
-39
100
281
235
42
15
-87
-191
-211
-283
-177
-42
99
149
77
90
32
19
52
77
80
46
36
-26
-54
22
74
135
237
101
-83
-155
-284
-339
-247
-34
76
-4
-62
-46
24
81
71
67
59
10
31
80
57
36
39
91
128
37
-16
-16
-51
-4
115
190
149
-47
-208
-267
-308
-173
22
22
52
140
105
55
14
-27
-46
-24
-38
-54
1
14
14
12
7
27
102
175
81
-77
-117
-97
-121
-81
27
53
-14
-49
-35
-5
31
11
6
22
6
-4
29
24
6
19
12
34
27
31
36
61
154
80
-51
-29
5
-11
-67
-105
-107
-88
-24
-32
-11
89
104
14
-17
11
-33
-13
-21
-36
117
197
64
-76
-145
-223
-159
-30
45
102
33
5
62
89
47
-42
-51
-36
-18
-6
14
61
90
91
37
22
-16
-116
-99
-37
33
220
196
-39
-49
-127
-215
-71
-71
-143
-54
42
47
89
52
-32
-9
22
12
16
94
132
81
31
-7
-36
60
133
-10
-93
-93
-124
-112
-117
-95
46
134
79
83
71
-9
-45
-110
-103
42
64
33
64
-1
66
157
-2
-109
-112
-114
-6
180
139
-71
-97
-126
-166
-16
98
43
11
34
23
11
-4
-16
2
4
-6
37
92
79
37
2
-77
-112
-27
78
71
17
12
18
-19
-32
9
-41
-58
4
14
51
67
18
-19
-89
-118
-61
15
111
107
-2
-85
-92
-110
-89
15
-21
-32
15
35
113
149
129
99
21
-147
-117
-30
-81
-46
-55
-27
4
-100
-122
7
114
99
99
144
109
28
-19
-78
-46
64
59
17
-3
-2
11
-31
-42
-11
16
41
51
54
56
87
79
9
-47
-96
-137
-99
-13
-13
-18
-11
-19
-7
-24
-37
-26
1
0
-5
-5
-17
14
32
9
57
136
58
37
71
-74
-105
-27
-84
-163
-116
-76
-18
77
53
127
190
126
69
-29
-75
-77
-63
-17
54
131
84
4
-57
-119
-61
-5
-18
-47
-56
-4
87
150
58
-19
-67
-114
-23
-4
-32
-6
23
117
192
119
-48
-208
-257
-175
-24
76
57
52
79
83
62
49
19
-51
-79
-56
-32
-34
-18
-14
-2
27
52
97
77
57
33
-55
-47
32
32
24
12
-14
6
20
21
-14
-25
4
7
-17
-26
-21
-85
-85
-6
39
37
-9
11
-3
-4
82
47
-15
-26
-64
-73
6
43
-55
-77
3
19
13
14
30
28
6
12
-16
-16
64
117
113
19
-149
-195
-77
32
-9
-89
-20
32
30
26
-25
2
41
39
53
78
103
67
17
12
4
-52
-64
-14
16
-6
-59
-42
-1
49
160
169
31
-79
-207
-258
-104
-26
-21
7
17
14
14
59
84
89
108
100
26
-39
-67
-102
-84
-32
47
84
16
-27
-49
-87
-34
93
145
53
-24
-40
33
120
29
17
41
-31
-20
-50
-64
26
14
-97
-115
-96
-95
-32
25
24
67
67
-21
39
110
59
16
9
-6
-73
-45
-32
-114
-64
-7
6
30
26
59
60
8
18
144
235
114
-47
-177
-222
-97
-22
-27
-48
-3
79
32
26
82
73
-8
-119
-115
-41
-8
-16
54
117
22
-19
-21
-69
0
98
38
-20
-6
-31
4
32
44
125
87
-26
-26
-42
-89
-40
-26
-60
-42
4
41
52
26
-41
-51
-9
-9
14
-12
-76
-6
90
120
110
71
-54
-108
-46
-17
43
27
19
109
99
23
-7
-90
-189
-137
-37
-7
-2
12
-34
-56
-26
-81
-77
-31
-30
126
161
46
71
57
66
113
69
35
16
-5
-23
-36
-45
-34
-2
43
43
-27
-79
-71
-21
-7
-18
18
24
34
39
36
116
142
68
-77
-304
-353
-265
-195
6
44
31
183
137
58
23
2
42
16
22
9
2
66
128
150
104
71
35
8
31
23
-11
-38
-16
7
-46
-76
-30
1
30
39
-47
-143
-193
-132
23
34
-17
20
2
-9
-1
-11
21
39
40
19
-1
11
15
16
47
64
47
32
-12
5
46
-57
-123
-134
-115
-10
-7
17
81
-7
-56
-35
-14
50
77
85
22
-92
-46
34
36
71
17
-77
12
97
115
137
183
186
-34
-164
-126
-185
-131
-28
-79
-54
-5
-30
-16
9
29
29
-58
-142
-44
87
178
139
16
34
1
-1
40
16
47
72
77
50
-20
-69
-56
-24
-34
-29
-23
-17
-17
-34
-29
-18
-11
4
49
84
47
-17
-95
-150
-83
19
67
134
124
-27
-107
-149
-160
-62
1
34
46
67
57
-8
18
39
34
39
24
69
106
69
16
23
71
33
-122
-178
-150
-127
-5
14
22
124
99
65
-34
-139
-77
5
23
6
16
-9
-27
18
31
42
42
11
1
-13
-6
18
29
68
78
64
32
-42
-69
-23
29
28
-44
-119
-91
15
60
69
89
18
-41
-27
-91
-139
-62
-24
-27
30
45
47
104
117
58
-36
-85
-55
22
76
42
-51
-95
-54
4
47
6
-68
-51
16
73
112
189
250
208
21
-247
-316
-153
-115
-208
-113
57
261
419
201
-80
-203
-248
-59
42
37
119
-95
-250
-145
-112
35
190
326
545
489
51
-395
-571
-405
-36
172
217
185
26
-185
-222
-178
-192
24
87
26
140
56
-81
-87
-31
135
151
9
-9
-149
-245
-158
-29
90
85
154
117
32
21
2
26
6
0
-16
-26
-51
-57
-22
15
87
123
28
-124
-108
19
94
51
-59
-115
-62
22
44
104
59
8
36
-10
1
7
-4
-49
-45
142
285
237
88
-154
-180
46
-73
-212
-164
-112
52
56
15
35
-39
-59
-38
-4
52
92
117
145
178
104
-77
-140
-73
-32
-41
6
118
129
169
26
-268
-215
-125
22
26
-155
-117
-154
-18
74
25
113
54
16
6
14
32
22
47
61
52
-7
-26
-35
34
62
-19
31
34
-5
-26
-56
-27
1
19
27
43
36
12
-3
-9
7
17
10
42
90
49
-15
-69
-133
-66
16
9
7
68
169
41
-65
-200
-388
-95
84
78
97
-24
-46
-29
32
14
-2
96
96
33
-12
1
-4
-25
4
-44
-82
-12
-13
9
43
47
92
51
-74
-71
47
79
70
89
14
-39
157
250
129
-58
-369
-295
-54
-106
-83
-42
-19
17
22
11
7
45
94
134
57
-51
-122
-99
2
-7
-19
29
35
48
30
-7
86
164
140
69
-11
-89
-127
-144
-149
9
102
-32
-123
-57
80
120
52
-17
-59
-30
6
-15
14
89
140
86
-17
-92
-147
-61
36
30
21
27
-13
-62
-47
-54
-47
-19
47
49
-2
40
33
18
26
26
39
35
4
-4
14
-32
-44
-22
-4
21
39
53
9
9
22
-16
-16
-11
-24
-9
32
8
-9
22
32
-2
-31
-25
-65
-81
-14
-1
-27
19
3
-4
47
6
3
36
46
39
-20
-11
10
-7
-6
-8
0
2
-17
-9
4
-9
17
24
23
50
24
-25
-42
-40
-46
-52
-16
3
6
24
-6
-19
1
-26
-27
-6
-38
-10
45
34
37
40
19
7
50
63
-21
-62
-24
22
5
-55
-51
5
43
60
16
-24
37
32
-17
-3
1
-11
-72
-77
7
-14
-60
29
72
89
94
18
-2
-32
-28
56
46
-64
-44
26
-21
-25
-19
43
114
33
19
36
-9
-31
-61
-62
-49
-32
-12
-37
-11
12
-17
-37
-12
21
2
47
65
34
27
-14
-23
-5
6
8
0
3
-12
-55
-89
-72
12
116
155
108
44
-48
-99
-42
-2
-17
-34
27
-19
-114
-46
-15
-47
-36
-34
-112
-96
-13
62
142
92
92
76
18
45
35
23
12
9
7
13
24
6
-21
-46
-39
-44
-19
6
-71
-124
-110
-21
135
223
162
35
-1
-42
-77
-81
-60
-20
-41
7
59
76
3
-60
24
79
27
-54
-49
-17
10
-67
-165
-99
2
241
663
560
-81
-374
-413
-316
-90
54
17
-243
-275
-173
-85
123
193
185
202
122
70
77
6
-94
-52
24
-29
-6
58
54
-4
-157
-232
-160
23
134
58
-16
-77
-59
50
146
149
67
-28
-61
-4
-22
-11
39
67
93
47
16
-39
-63
17
71
100
74
44
67
71
16
-79
-112
-176
-160
40
141
94
4
-61
-174
-174
-76
-49
62
64
35
75
42
10
-34
29
123
160
114
-11
-22
24
26
-73
-109
-13
32
29
11
24
-14
-122
-77
-9
-124
-147
-22
-68
-78
24
14
17
24
26
29
51
149
214
147
-7
-161
-270
-114
9
-48
32
43
46
85
117
134
56
35
-6
-15
54
97
23
-137
-169
-104
3
99
104
-12
-114
-142
-92
14
17
7
-107
-145
-16
49
118
32
-40
-42
3
123
84
91
85
33
4
-48
14
75
52
-34
-36
26
48
27
4
29
-56
-107
-94
-93
-42
-31
6
124
160
34
-66
-217
-214
81
137
3
-59
-52
-79
-44
32
-12
31
42
55
63
29
65
46
62
52
0
44
82
22
-2
-61
-127
-49
9
-1
-79
-89
-98
-144
-42
17
76
121
72
26
7
38
41
66
109
99
95
104
42
1
-8
-127
-217
-180
-53
27
23
72
77
78
87
24
-66
-238
-192
-18
-52
-29
23
21
24
27
18
-12
3
1
6
34
22
5
-9
-22
2
48
74
59
-11
-49
-15
43
102
131
130
36
-61
-122
-187
-122
-21
22
-7
-5
14
-12
-28
-9
49
9
-14
31
41
22
-11
-9
47
36
-2
54
72
77
46
-37
-92
-91
-66
-64
-41
-61
-59
14
62
92
115
137
152
118
54
-51
-158
-110
-76
-36
56
-61
-129
-89
-196
-197
-47
-1
64
102
79
96
32
9
6
-24
3
31
69
80
59
72
68
41
4
-52
-37
-14
10
140
235
125
-62
-225
-279
-107
-3
33
79
48
104
31
-160
-180
-144
-60
46
69
122
155
91
61
42
29
25
-44
-102
-182
-183
-41
-12
-42
2
2
-16
25
64
93
143
160
96
-13
-77
3
120
41
-56
-149
-277
-180
-65
-14
20
12
44
22
9
32
23
11
59
125
157
129
61
16
-85
-82
-52
-48
9
-15
10
22
-13
-29
-44
-36
-17
-22
-27
50
36
-14
99
364
541
108
-376
-467
-424
-64
14
-27
82
-1
20
-12
-40
-9
24
81
122
125
8
-22
-15
42
39
-62
-42
-51
-24
-1
-9
7
10
51
17
-41
-76
-40
-19
-63
24
81
22
-1
9
4
14
31
79
108
22
-47
-46
-11
27
-8
-43
-55
-68
-27
7
0
-18
49
152
62
-42
19
-76
-148
16
-29
-107
-17
18
112
121
87
95
-23
-37
16
4
53
94
167
134
-108
-267
-277
-67
73
-28
-27
-93
-79
30
-4
-26
-36
31
2
-79
-66
-1
196
303
255
42
-98
29
73
95
-18
-187
-100
-56
-78
-203
-215
-21
127
172
-17
-71
-23
-9
86
28
-11
31
82
122
160
142
2
-55
-175
-214
-12
3
-47
16
36
109
114
-40
-123
-23
3
-47
27
-5
-47
-12
98
194
107
42
-33
-155
-158
21
69
12
-64
22
246
-101
-289
-263
-263
99
119
56
51
78
242
219
188
46
-161
-229
-168
-44
-28
-57
-42
-34
10
51
58
61
70
112
109
85
91
102
17
-125
-178
-119
9
-9
-94
-40
61
126
71
-17
-127
-152
-6
-54
-75
37
59
164
193
85
-105
-225
-80
66
106
52
31
89
25
-122
-201
-49
265
335
-41
-292
-131
-72
-59
37
57
52
31
16
-4
-67
-105
-75
-37
12
16
21
27
34
69
74
87
34
-23
55
121
62
-60
-166
-101
-29
-116
7
158
106
6
-172
-122
34
78
121
72
-41
-65
-24
-56
-57
16
71
139
89
-87
-133
-97
12
89
44
39
-13
-6
9
-7
14
-60
-35
0
31
90
81
25
-89
-80
-34
1
37
27
-22
-30
142
217
128
-72
-243
-162
-54
-52
-169
-5
169
-19
-16
-25
20
137
17
-56
-69
43
72
-83
-97
-77
29
86
-18
49
92
64
66
-90
-80
88
115
85
-34
-82
-47
-64
-47
-7
57
62
25
49
197
224
9
-200
-338
-114
58
-25
27
-45
-73
-50
-49
17
31
12
24
92
66
12
5
64
90
94
124
-61
-90
-84
-145
-24
-74
-31
59
72
76
-71
-102
-34
61
39
-33
7
-4
29
92
51
22
88
107
14
3
-133
-183
14
-7
54
-22
-101
61
-6
38
-14
-106
-90
-95
4
54
81
34
58
50
38
127
93
27
-57
-94
-68
-76
-67
10
67
81
122
90
-17
-123
-150
-71
62
-65
-211
-66
34
105
56
42
192
230
85
-95
-266
-288
62
229
74
-144
-150
41
59
61
144
188
79
-37
-202
-204
-89
-60
22
-4
97
157
124
87
-63
-112
-4
112
131
87
-197
-351
-162
87
109
-18
45
8
-4
24
55
149
122
49
-84
-127
-71
19
14
-67
-67
-95
-47
-44
-70
-15
-2
67
152
200
164
6
-62
4
72
-6
-124
-115
17
83
-96
-99
-43
-80
26
20
2
22
35
66
54
54
-1
-27
-30
-32
76
114
42
17
-61
15
112
-64
-77
-57
-116
-110
-46
40
-17
-31
-7
11
31
55
58
26
64
1
-18
39
65
151
24
-100
24
48
29
-46
-71
81
-25
-150
-103
-107
2
13
-9
122
159
49
-118
-172
-135
38
63
-29
6
-5
21
-42
-78
-76
57
291
200
114
-65
-195
-67
-80
1
-12
15
339
195
-140
-261
-296
32
196
54
-15
-187
-179
24
63
94
84
0
-20
-31
4
41
122
151
95
153
3
-217
-172
-23
61
-41
-97
-52
67
184
63
-120
-225
-199
-38
95
152
180
200
120
-67
-194
-109
45
39
21
19
-68
9
183
162
152
31
-222
-151
-122
-210
-182
-151
-47
81
179
126
39
-152
-202
44
109
64
27
113
100
11
89
42
44
47
-108
-128
-2
117
112
-43
-65
-114
-157
32
16
17
150
175
74
-114
-175
-144
-25
12
72
169
81
30
-114
-183
-97
-115
60
136
46
47
-40
9
84
3
12
56
-39
-54
-37
-34
56
36
-38
-51
-58
-56
121
230
70
-1
-115
-227
19
136
139
76
-120
-124
-193
-43
115
147
296
177
-107
-353
-237
-37
-70
-39
-22
41
192
127
1
-66
-96
-11
14
44
42
10
18
17
107
177
146
1
-203
-145
-10
52
115
-2
-29
-2
-84
-185
-105
144
86
-121
-182
-39
68
-35
18
100
46
-66
-69
122
177
69
-43
-82
-56
-42
-4
61
56
3
24
57
-8
-81
-62
-62
-14
44
31
41
0
-15
8
6
-13
-22
31
86
108
170
165
16
-136
-114
60
117
64
-181
-315
-190
-79
20
40
109
67
-17
-67
-79
4
2
29
-58
-64
39
17
47
28
11
46
24
-19
2
-11
-6
29
-17
63
104
100
94
7
-32
-105
-121
-17
46
16
52
89
100
69
-77
-80
-114
-180
-72
-28
12
109
184
217
56
-112
-155
-175
-110
-106
-21
66
3
6
-41
19
125
132
42
-75
-54
-24
30
25
17
84
89
46
14
-30
-136
-109
-67
-90
69
213
205
56
-77
-112
-69
86
110
4
-83
-28
96
110
-62
-236
-159
-64
-53
-16
15
17
37
61
51
70
99
32
-36
-46
-32
61
31
-12
31
-63
-144
-110
17
127
166
24
-159
-21
47
-29
-17
-72
-29
26
4
26
11
7
21
49
68
6
-35
-33
-25
11
14
29
70
94
39
-67
-99
-69
1
-44
-41
51
-14
8
47
8
-25
3
50
9
27
-1
-16
4
22
166
242
70
-126
-254
-333
-91
36
6
92
160
218
33
-31
31
83
63
-161
-265
-267
-55
21
-25
2
-48
2
4
68
74
29
41
11
24
4
61
104
39
-22
61
162
69
-55
-91
-49
-9
-46
-64
-32
-26
12
90
91
-43
-125
-126
-61
143
144
-56
-84
12
124
131
12
-78
-141
-87
9
5
9
33
74
69
2
-74
11
248
147
-142
-260
-223
-72
-44
-21
1
-5
128
247
191
-26
-162
-183
-72
36
-40
-41
-23
-15
30
31
49
46
24
26
21
22
42
28
33
55
41
8
-21
-12
-34
-7
62
79
15
10
119
56
-3
-88
-243
-199
-87
7
-12
-19
24
9
24
21
22
11
19
29
28
59
76
125
104
-26
-170
-207
-71
16
24
24
-67
-103
-13
78
62
0
46
115
237
187
-37
-81
-144
-138
-40
-21
-19
-31
-11
27
94
103
54
16
-84
-122
-62
-49
-36
12
29
6
-2
9
32
86
116
76
-23
-107
-139
-69
-13
-19
-10
-27
-2
50
129
142
52
-29
-81
-39
-9
-24
-8
7
-6
-9
39
68
12
-14
-25
-72
-31
14
19
74
106
-14
-108
-89
-69
46
57
26
77
8
-40
-29
31
66
-2
-32
-52
-87
-125
-86
16
67
69
17
-4
14
34
50
52
34
6
-6
-34
-12
-1
12
117
200
114
-78
-197
-182
3
41
2
-7
-85
-79
-61
22
39
25
71
110
144
-17
-132
-130
-50
115
138
28
-154
-159
-44
-24
-74
-92
54
110
61
29
13
56
52
43
64
48
21
25
-10
-42
-40
-41
-19
-41
-34
-15
-2
50
77
76
20
-66
-57
-21
-26
-21
-70
-74
-15
42
48
12
21
28
84
123
86
24
11
42
3
-112
-191
-133
-40
-2
-55
-39
-6
12
108
94
93
56
-80
-141
-74
84
95
7
-4
7
12
24
9
-29
-68
-44
17
27
51
58
26
-6
7
2
-19
42
30
-7
10
13
49
60
81
61
-117
-188
-104
-95
-9
9
-89
-12
17
-27
-31
-4
47
70
39
56
104
51
49
-8
-66
-18
-41
-65
-22
99
146
44
-83
-129
-56
-11
-35
-16
11
1
-6
9
81
116
79
39
-82
-134
35
140
51
-67
-131
-76
36
19
-52
-102
-106
-66
10
95
32
1
60
77
22
-2
57
17
16
67
54
31
22
9
-19
-7
1
-44
-84
-54
-26
-24
13
25
6
-12
-55
-52
-7
-26
14
145
120
2
23
42
17
50
-34
-117
-114
-175
-132
-5
14
12
-24
-27
20
22
53
62
62
45
42
34
-14
-15
-2
22
115
183
14
-106
-47
6
90
12
-66
-84
-81
2
-12
-52
-72
-21
41
107
176
116
29
-87
-171
-83
-27
-59
-51
-28
1
12
17
34
67
103
30
-79
-155
-140
-23
58
94
125
115
6
-63
-25
38
61
-9
-22
-15
-6
19
-1
24
47
15
-31
-50
-54
-18
9
-4
18
19
6
-14
-6
47
34
-43
-87
-32
-19
-27
60
110
141
102
-68
-207
-239
-152
-19
-4
24
98
52
53
76
66
71
34
25
32
39
16
-7
-37
-61
-22
-11
7
9
-17
-27
-24
-19
-55
-21
41
24
4
27
36
15
9
10
-14
-52
-11
54
82
102
56
-43
-122
-182
-161
-30
54
44
-7
4
91
107
67
-18
-108
-79
-35
-11
31
40
44
45
24
-20
-38
34
76
43
44
-42
-94
-11
-26
-13
4
-5
21
1
-12
-27
-14
76
107
52
40
-44
-117
-61
-7
17
-26
-44
-18
17
56
92
155
72
-68
-143
-129
16
6
-49
-9
-13
6
1
17
67
14
-42
4
57
89
56
-11
-11
-28
-74
-93
-42
-36
-69
6
55
15
7
39
55
63
-10
-79
-51
-27
82
157
62
-15
-76
-115
-41
2
-7
12
-23
-44
6
48
33
17
51
81
71
11
-68
-60
12
6
12
62
28
-38
-62
-79
-64
10
19
-6
12
-10
-14
16
-28
-47
3
48
72
34
1
-29
-69
36
120
42
-54
-84
24
86
1
-71
-104
-62
-24
-7
-6
-16
16
16
27
27
21
66
87
69
-14
-71
-52
19
36
-17
-6
1
46
39
-27
-7
-17
-29
-12
12
18
25
47
-17
-25
14
-28
-38
-67
-56
29
85
42
-50
-79
-93
17
88
11
8
-2
-25
5
14
14
24
26
9
-7
4
1
1
8
16
65
90
39
-51
-100
-95
-39
16
6
1
0
-3
-21
-37
-21
-34
-4
33
83
71
-28
-3
32
40
27
6
97
118
0
-81
-149
-109
49
83
4
-91
-92
-14
24
-15
-26
-7
-34
-17
-34
-33
9
55
85
24
26
26
13
31
-7
-18
1
4
-20
-7
15
18
12
3
17
17
4
-31
-18
19
16
40
34
4
47
86
76
-2
-108
-118
-137
-61
129
110
12
-77
-144
-54
34
-4
-71
-83
4
68
12
7
19
51
67
73
147
66
-76
-141
-67
86
51
-71
-95
-37
1
4
5
11
14
6
14
0
-11
6
5
-18
-12
10
20
26
27
26
18
19
8
13
26
-1
-8
-16
-7
41
74
36
-44
-109
-112
-33
-12
-22
9
10
15
35
46
31
-4
-21
-57
-100
-74
6
47
49
49
40
15
11
30
28
10
-8
-6
-6
-9
-6
-9
-2
2
3
-1
-6
-4
-1
1
-12
-24
-24
-37
-40
-20
-14
2
29
38
39
20
18
22
21
32
22
12
-2
-24
-17
6
2
-12
-19
-23
-9
-16
-9
14
-11
-29
-28
-5
25
43
60
57
36
21
15
0
-7
-11
-9
4
14
14
-6
-22
-4
21
30
28
19
-3
-19
12
39
29
21
1
-21
-24
-18
-11
-17
-24
-29
-36
-46
-60
-42
-11
0
4
11
28
40
29
4
-16
-14
-17
-57
-72
-16
26
21
16
-22
-33
-2
11
21
16
-19
-66
-106
-134
-107
-63
-72
-81
-2
97
81
47
72
96
124
109
28
-52
-71
5
71
42
12
7
-4
5
19
35
41
39
38
29
34
31
21
12
0
-2
-5
-3
2
3
-5
-6
-16
-34
-27
-23
-24
-11
-1
0
2
1
-4
-6
-6
-3
-6
1
15
7
-11
-12
-11
-7
-1
-11
-21
-3
15
-5
-7
-36
-57
-7
32
129
187
99
-17
-71
-36
19
56
77
-16
-207
-283
-215
-32
64
18
32
39
41
33
22
29
30
34
26
21
16
12
11
14
17
12
5
-26
-36
-13
-1
22
52
57
27
9
1
-31
-27
4
19
54
76
40
-6
-60
-124
-105
-17
-3
-9
7
-1
2
-4
-6
-6
-14
-2
-1
2
0
4
16
25
36
33
16
10
22
11
-4
-1
-4
-10
-17
-13
-1
25
37
21
43
5
-104
-104
-51
-14
42
51
-28
-90
-82
-23
31
25
41
42
19
17
1
-9
-15
1
12
22
24
0
-8
-16
-17
-17
-9
6
-4
-9
39
73
24
-16
-37
-40
-7
-4
-4
-1
-2
0
7
14
-11
-9
14
6
-5
-3
14
29
39
26
-12
11
46
17
-41
-95
-106
-87
-29
14
31
51
30
16
14
12
12
4
7
9
17
26
22
9
18
45
33
-11
-20
-37
-58
-18
34
41
1
-41
-34
3
14
7
14
29
36
48
54
20
0
-13
-14
2
18
68
47
-38
-65
-39
28
56
36
-4
4
66
-17
-192
-165
17
-39
-124
-1
31
18
28
59
77
92
182
179
84
-37
-100
-40
-50
-107
-105
-79
81
166
-43
-249
-239
-105
27
130
195
187
125
26
-129
-202
-86
77
74
-10
-1
-52
-19
152
190
202
181
162
48
-275
-462
-365
-82
23
-62
-74
-47
49
95
119
79
4
1
0
52
57
69
82
81
107
114
52
-98
-280
-341
-176
-85
2
110
35
-73
-117
-36
35
6
-20
-39
-1
62
61
76
102
97
74
55
74
77
79
108
94
-21
-137
-119
-81
-84
-82
-79
26
47
7
32
10
35
36
42
32
2
22
7
11
6
-2
11
3
14
31
2
-27
-3
27
45
56
41
-48
-141
-163
-108
2
72
89
45
17
65
26
-31
-39
-60
-11
59
54
11
-14
24
0
-51
44
74
6
52
27
-180
-315
-220
-30
32
42
120
150
162
145
-6
-129
-103
-22
17
58
102
81
29
-9
9
3
76
164
45
-122
-270
-317
-148
-4
7
17
-53
-42
83
154
152
66
61
-23
-104
-19
39
54
-17
-54
7
135
189
77
-24
-54
-99
-171
-118
-6
97
97
11
-78
-75
38
26
75
60
7
46
-34
-100
-95
1
3
47
155
128
39
-133
-123
-95
-115
6
51
18
-23
-49
-66
-24
65
62
60
42
-27
11
42
16
61
103
66
45
74
32
-54
-49
-85
-151
-25
108
67
-115
-222
-134
-59
-34
31
69
11
1
19
-7
32
61
72
71
60
124
59
-95
-105
-21
41
66
114
134
91
-36
-150
-168
-155
-84
7
-42
-22
124
100
48
26
-19
-49
-14
56
12
-34
-64
-80
-4
86
89
143
124
-147
-215
-36
90
63
-89
-74
-24
-2
106
13
-131
-67
58
99
-31
-79
-9
-29
-1
7
-11
11
-6
8
27
104
203
154
145
175
-14
-102
-116
-213
-93
-39
-85
35
59
-33
-110
-196
-135
-3
7
64
123
117
173
154
47
-141
-246
-14
182
93
-98
-137
-1
154
330
303
42
-130
-285
-379
-240
-31
74
81
115
61
-87
-116
-64
-11
14
-1
21
77
11
-30
-22
-1
195
222
18
-21
31
66
11
-116
-94
-52
-42
-34
-52
-27
0
62
122
83
-12
-85
-98
-41
26
64
187
321
227
-77
-339
-351
-182
-42
-9
51
79
7
15
35
19
20
34
9
-102
-122
-19
52
85
73
28
40
29
5
7
24
57
-7
-104
-164
-112
178
302
64
-127
-145
-62
33
29
22
32
-42
-125
-74
72
133
135
15
-74
-9
-12
52
256
361
64
-236
-310
-408
-147
86
78
103
-9
-87
-84
-54
-62
-24
34
-7
-22
-109
-181
-70
197
371
310
37
-219
-98
65
51
-22
-15
46
0
-12
-61
-104
-74
34
269
329
115
-80
-260
-248
-16
-106
-141
-141
-186
170
532
554
147
-266
-436
-89
129
-212
-178
-41
314
462
214
-22
-91
67
110
147
-56
-119
-372
-634
-342
-97
106
137
165
120
23
85
135
150
102
263
183
137
413
179
-196
-502
-598
-165
-27
-47
39
-54
-62
-94
3
79
-88
-71
-2
-62
-66
-49
-7
159
193
65
52
22
27
155
117
51
86
49
39
34
7
29
16
6
-8
-51
-87
-82
-37
-39
-40
1
15
-13
-39
-24
4
-9
-66
-108
-81
-6
19
4
-1
-34
-16
74
108
68
35
2
61
61
-77
21
105
-64
-197
-205
-16
98
17
-144
-180
92
12
-31
80
-9
59
37
91
155
70
-70
-108
-39
13
122
55
44
43
7
45
-16
-52
-51
3
5
-15
-22
-36
26
24
-11
-6
-59
-46
124
139
85
-25
-185
-135
-124
-121
-59
42
86
30
19
-25
0
-78
-177
-86
-16
114
59
8
182
178
-29
-262
-256
-66
27
39
150
189
112
52
93
323
232
-95
-270
-254
-36
-44
-83
16
59
85
54
9
-17
-19
-22
-11
1
-8
-19
27
67
34
42
24
42
53
-1
34
49
16
6
17
9
-12
7
42
56
21
-26
-117
-116
-22
-43
-32
16
72
154
121
11
-19
51
47
-30
-154
-243
-165
-191
-114
105
81
44
-2
15
120
6
-142
-185
-221
-136
-19
46
51
140
344
240
-83
-437
-356
34
2
-6
67
157
258
217
137
81
112
101
56
-19
-52
-16
57
102
34
-25
-54
-22
22
71
117
74
-32
-156
-143
-84
-65
-18
4
12
-41
-44
10
-3
-41
-41
62
162
112
-72
-161
-110
-14
4
-107
-129
-72
-34
9
41
10
-17
18
26
40
41
31
34
19
43
31
-22
2
42
11
-84
-139
-102
-123
-86
-20
-16
33
73
157
209
80
-74
-100
-41
160
369
406
244
-56
-381
-565
-318
-68
-10
31
9
57
66
26
-27
-18
34
29
21
-4
7
9
20
44
36
24
1
-9
1
11
21
65
10
-104
-162
-148
59
172
112
87
32
95
293
147
-178
-235
-207
-117
-70
-124
-66
21
13
56
149
102
23
-69
-167
-98
-27
-11
51
24
37
123
176
159
-49
-187
-149
-2
69
-15
-25
13
67
104
123
-4
-69
57
114
221
99
-110
-59
-72
-150
-127
-78
-138
-110
-77
-121
-69
33
130
98
51
31
62
81
89
127
-16
-139
-134
-63
-27
-39
232
431
270
115
-127
-407
-287
-110
-112
-89
-66
99
149
-18
-119
-49
7
-53
17
96
95
48
67
26
26
145
-8
-61
-62
-78
80
215
366
208
-175
-344
-197
2
-19
-56
-82
-66
-137
-158
67
144
131
96
132
88
-40
-19
-11
207
280
-22
-217
-276
-154
-72
-204
-138
-67
-51
27
143
296
223
198
154
151
147
-15
26
-50
-88
-137
-110
3
-207
-171
-26
-7
89
71
38
71
54
100
92
57
32
-104
-112
119
373
140
-132
-280
-574
-220
37
-102
-69
-191
-139
-37
32
78
95
14
-119
54
215
230
155
154
105
57
41
6
95
84
67
13
-112
-146
-54
-42
-100
5
96
71
3
-148
-226
-199
-197
25
-54
-198
90
155
102
-31
-76
79
178
247
114
37
57
11
-26
-81
-19
26
18
12
-18
-1
-1
-14
46
99
-36
-104
-22
-76
-175
-255
-129
165
131
51
-22
-87
56
-26
-89
14
44
6
22
112
203
300
112
-172
-288
-172
7
-62
-82
-5
21
36
39
23
41
90
55
27
-45
-124
-79
-67
61
293
210
-26
-57
-20
-31
-56
-114
-98
-20
-33
26
71
22
-12
-18
24
4
49
165
203
66
-100
-135
-88
150
134
-96
-169
-235
-89
86
108
2
-170
-61
129
127
64
40
-1
28
43
-4
120
205
52
-157
-157
-102
-22
47
-36
-59
-104
-84
-36
17
29
-54
-39
56
137
13
-56
-120
-116
6
-81
-42
9
15
40
37
74
16
-35
-57
24
173
170
32
-80
-65
27
167
239
268
17
-268
-228
-291
-87
44
-2
81
32
84
-36
-105
-60
-18
36
41
147
-45
-136
-46
-110
79
165
-24
-77
-7
54
67
74
47
-9
-32
11
40
-17
-52
-74
-22
23
23
70
11
-9
24
155
403
246
-57
-261
-481
-268
-72
-2
145
37
-27
-74
50
254
125
-83
-223
-109
45
-18
-57
-79
1
82
84
107
80
76
8
-32
-35
-57
-9
-1
66
49
-23
-12
-28
14
40
33
34
56
93
81
13
-100
-154
-118
-2
150
288
127
-212
-321
-286
-19
83
-30
-20
-36
41
59
44
127
193
133
-111
-202
-92
34
52
-76
-81
-16
15
120
124
46
-18
-152
-163
-39
43
99
189
311
161
-27
-154
-346
-216
-139
-67
11
48
220
65
-21
-1
-23
71
90
59
-12
-14
-9
-14
7
63
125
7
-107
-111
57
122
-31
-83
-105
-81
-19
53
90
119
104
-3
-31
-71
-142
-139
-119
-99
-62
19
63
8
4
37
66
98
66
152
255
139
3
-139
-264
-225
-74
76
42
13
13
13
109
42
-89
-132
-15
139
31
-64
-9
109
218
89
-43
137
170
-94
-330
-411
-272
-82
52
138
135
64
32
62
59
64
65
49
96
61
17
-2
-92
-74
-37
-27
-21
-71
-66
-14
9
-11
-24
13
32
49
26
0
-1
-8
8
29
112
81
-26
-3
-17
-82
-132
-160
-80
3
27
22
9
56
87
116
118
137
92
-26
-62
-245
-286
-194
-51
157
65
-2
1
46
142
83
25
-19
-15
51
60
68
84
47
-18
-17
32
-19
-78
-87
-72
-94
-134
-48
9
97
77
36
183
117
-41
-102
-162
-81
-48
-167
-120
-12
117
154
46
57
30
32
55
-18
-5
29
32
29
85
63
-94
-144
-78
99
121
-26
-100
-84
80
49
-55
-94
-84
52
-27
-26
41
172
301
49
-177
-212
-39
54
-36
17
12
-27
-4
29
45
39
42
-67
-62
-14
-71
-65
-54
11
51
39
37
28
76
111
7
-120
-103
-6
137
130
14
13
26
41
-4
-63
-157
-218
11
267
349
102
-225
-359
-323
-40
-2
29
80
42
140
6
-59
-77
-59
14
-56
-28
31
73
76
107
80
65
162
128
54
42
12
-135
-290
-293
-82
54
161
232
75
-24
-98
-44
22
39
79
17
-9
-46
-41
-15
5
36
-16
-86
-102
-33
16
-22
44
247
294
64
-197
-302
-175
56
4
-86
-40
-29
46
22
18
-16
-76
4
26
81
59
64
95
4
1
10
33
21
-51
-126
-81
79
74
55
28
26
91
67
110
42
-125
-65
-36
-71
-101
-162
-119
-47
63
164
95
-7
-87
-69
109
109
3
14
-25
-44
-35
-87
-54
-4
-51
-35
97
145
67
-2
-94
-47
51
-15
-5
-9
-6
42
39
92
79
23
-7
3
62
41
-46
-109
-66
84
136
42
-52
-122
-119
-33
-6
-117
-129
6
100
74
-6
81
118
95
115
-4
-107
-176
-191
-79
63
162
195
27
-286
-178
26
57
177
84
14
-124
-272
-132
-79
18
48
24
77
41
58
68
84
103
97
72
39
54
58
117
100
-59
-185
-159
-55
-36
-56
-28
51
15
-51
-24
-36
-22
4
67
159
145
17
-162
-253
-157
22
100
91
75
-1
-8
95
114
81
81
38
-47
-69
-105
-69
1
-64
-104
-31
149
120
-64
-124
-168
-140
-105
-42
25
80
117
182
281
207
-6
-152
-208
-248
-111
-4
-17
16
59
45
-39
2
27
5
42
81
130
168
112
6
-1
-98
-150
-47
-26
-50
-59
85
248
196
47
-189
-219
-4
-54
-76
-12
-31
-11
-14
35
40
57
59
-26
-42
-21
49
69
-10
-62
-37
24
118
80
-84
-101
-97
10
115
110
101
41
21
-50
-129
-159
-32
-17
-63
61
54
47
37
48
71
93
14
-172
-95
-69
-85
-19
14
82
115
110
22
-85
-164
-97
-5
25
161
252
188
-38
-222
-202
-91
-47
-23
27
12
-85
-94
-41
-29
76
194
271
188
73
17
-83
-114
-112
-59
14
28
-2
-24
-51
-79
22
56
0
-4
-29
12
-21
-117
-95
-22
71
105
68
-21
-104
46
261
148
-85
-190
-173
10
70
120
158
47
119
40
-99
-129
-116
-10
16
51
-2
-61
-2
101
91
-42
-124
-159
10
90
-18
17
104
30
-147
-167
-26
66
67
-13
-168
-223
-117
77
189
109
4
32
130
112
61
21
18
81
9
-36
-27
7
82
-7
16
44
-73
-89
-117
-114
-44
18
86
182
178
14
-94
-184
-146
1
147
217
35
-97
-233
-288
-84
26
76
-27
-115
63
121
66
36
-34
-9
37
26
37
36
21
6
14
-4
-22
-5
30
122
152
105
145
328
147
-255
-339
-390
-143
62
-15
-1
-115
-105
6
67
61
39
-2
-56
41
82
79
-12
-59
96
47
-58
7
23
32
-41
-164
-36
81
12
25
129
78
-26
-60
-82
29
187
250
130
-112
-262
-198
17
37
-20
-42
-76
-2
36
-27
-90
-125
-57
47
39
44
72
74
44
4
40
43
28
76
88
54
-41
-188
-181
-76
-41
26
49
66
116
-2
-15
79
22
59
43
-19
10
-29
49
112
27
-51
-44
6
2
-33
-191
-225
-77
-76
-46
16
110
174
16
-16
9
-159
-79
89
14
79
119
87
135
49
-11
-9
-41
-44
-95
-187
-33
90
-28
-12
-34
-11
61
1
26
107
265
358
150
-124
-331
-414
-229
-77
26
142
37
-76
-28
50
29
-6
46
67
110
134
123
84
-16
19
-61
-177
-51
-69
-51
16
4
72
181
205
19
14
-84
-198
-26
-125
-238
-130
90
27
-163
-81
-63
81
93
32
150
85
8
-2
-3
-17
31
85
-24
-34
3
-23
56
64
25
44
40
60
160
286
215
-38
-291
-318
-176
-108
-41
-39
-5
64
52
27
4
-2
-27
27
9
-27
81
176
220
110
-104
-291
-230
-74
-62
-52
-68
-76
-59
49
123
110
125
19
-36
34
-18
-19
22
-56
60
195
102
-32
-124
-130
-69
10
34
20
109
195
67
-64
-65
-12
98
39
-28
-19
-52
-26
-78
-93
-92
-66
-27
-41
19
29
65
66
33
68
138
157
131
134
-123
-265
-206
-202
-103
-45
44
-45
-122
2
131
288
233
110
-10
-69
-81
-155
-109
11
198
316
161
-49
-192
-273
-193
-175
-4
291
140
-52
-142
-256
-80
72
57
46
4
44
61
61
79
-31
-59
-21
-5
99
188
106
2
31
-36
-71
-67
-137
-49
29
14
12
16
84
107
39
-34
-64
62
145
24
-52
-81
47
135
-84
-218
-328
-220
82
32
14
54
50
79
21
7
-84
-81
7
11
29
-7
62
137
59
7
87
169
15
-71
-26
-144
-66
17
-77
-9
57
195
187
-38
-129
-190
-23
114
7
76
9
-104
-105
-150
-95
-4
-1
-94
-23
54
39
66
36
82
148
155
46
-30
-24
-77
29
9
-76
15
42
94
27
-61
53
140
134
62
-92
-71
-26
-202
-235
-192
-36
12
-156
-40
30
39
59
36
68
45
81
123
149
49
-26
-55
-121
-46
-7
46
58
26
-27
-80
-9
160
273
37
-145
-195
-172
32
53
76
34
11
81
-27
-6
-79
-152
-30
-31
-29
39
157
101
-61
40
-4
-46
7
-173
-9
120
-31
-28
-53
46
42
-72
-11
-15
17
53
66
99
72
-11
-67
-60
16
220
180
37
-44
-269
-253
-12
-21
-40
99
6
-97
21
125
237
296
-20
-344
-245
-200
-95
64
-11
-69
-26
67
29
18
72
88
73
25
49
42
6
13
79
73
-9
-117
-107
46
16
-26
13
12
10
49
110
304
452
61
-322
-434
-436
-172
-44
35
63
-31
22
2
8
52
96
179
157
41
-104
-31
60
-44
-61
-62
-99
-46
9
33
54
113
190
188
154
62
-8
-92
-264
-207
-117
-93
-79
-114
-94
-112
-61
-5
47
131
105
40
96
143
72
61
66
39
-9
-41
-114
-164
-60
81
134
41
53
157
150
36
-55
-138
-205
-82
-46
-38
67
92
-12
-69
-34
-49
96
221
177
26
-167
-203
-74
123
167
36
-108
-153
-135
-60
22
16
13
-36
-78
65
227
135
-49
-125
-186
-76
83
51
7
-6
-7
52
179
193
22
-101
-120
-55
52
52
22
-31
-81
47
172
119
-37
-77
62
216
169
-69
-232
-344
-307
-89
-17
-44
-6
-3
24
94
74
23
46
56
40
39
-49
-7
17
-153
-82
49
52
31
55
186
242
24
-138
-75
-132
-6
54
49
175
59
47
-14
-103
-49
-44
78
92
-111
-255
-203
-42
18
9
49
57
-1
19
114
159
191
137
-121
-207
-24
-51
-164
-157
-73
60
35
30
71
26
14
71
190
184
105
-29
-238
-168
-11
-30
-52
-57
-17
24
-8
-38
-34
-9
16
35
22
13
22
90
246
253
45
-105
-175
-122
4
-45
-80
-58
48
76
-43
-45
-100
-31
37
23
66
-14
7
41
68
64
1
16
-28
-27
-6
-17
-29
-29
47
14
6
41
25
83
228
190
-159
-320
-302
-160
49
62
104
97
110
38
-110
-137
-102
149
136
8
-24
-113
-119
-68
29
-34
-49
-15
57
127
58
104
89
73
177
190
41
-90
-142
-242
-111
84
-56
-192
-129
-67
6
90
71
117
150
6
-109
-166
-100
27
61
67
-35
-62
35
38
37
58
95
128
72
7
32
15
-56
-23
37
90
12
-54
-93
-258
-165
-29
20
92
38
41
29
16
158
369
290
-92
-309
-411
-262
57
20
-17
19
-17
23
22
79
156
89
-41
-78
-75
93
292
161
9
-157
-366
-255
-40
-34
14
59
52
97
61
27
-19
-42
-29
-52
-35
-16
36
122
154
132
142
79
-57
-47
-90
-78
91
159
167
-41
-272
-296
-251
-67
19
1
40
47
42
17
2
7
13
32
53
60
49
21
6
31
48
100
185
172
86
-42
-197
-170
-153
-236
-99
27
41
-1
-73
-84
-62
57
99
79
49
8
21
1
22
31
29
35
25
37
31
39
81
140
139
39
-87
-135
-70
24
64
79
14
-102
-156
-263
-228
-86
-74
11
34
-22
37
56
46
73
64
47
36
33
29
41
138
200
98
-8
-37
12
65
-67
-193
-255
-212
-84
-73
23
76
74
65
22
51
21
33
27
-13
-5
1
-2
-10
8
19
54
125
233
240
7
-231
-328
-269
-72
3
-22
7
11
24
36
52
85
39
6
-12
-22
12
37
107
146
77
11
-55
-103
-82
-8
142
217
124
33
-90
-233
-191
-105
-85
8
27
19
130
168
60
-31
-109
-203
-37
76
31
61
-23
-37
-70
-167
-92
25
52
47
37
15
25
18
37
62
95
92
14
-17
-51
10
71
-22
-29
2
7
159
223
15
-150
-288
-256
-16
5
-19
1
-6
-1
2
11
-17
-11
57
165
157
75
-11
-130
-129
-74
-100
-92
26
25
29
95
45
37
31
29
32
29
63
73
149
168
44
-135
-307
-246
-25
98
57
-52
-67
-113
-110
-30
0
125
250
239
74
-72
-113
-134
-157
-114
-15
-11
37
61
2
14
30
34
17
8
79
235
240
69
-94
-255
-183
-41
-33
-5
25
56
116
194
124
-16
-106
-247
-278
-136
-88
-79
-18
37
135
94
32
76
117
130
52
-2
-56
-79
-6
12
37
58
19
-21
-49
-4
127
177
49
-23
-104
-208
-147
-86
-13
22
6
57
149
167
39
2
7
-100
-99
-16
-61
-47
-11
-95
-49
6
-1
75
90
12
-26
-35
-18
16
7
34
46
-5
-6
42
77
42
12
13
-3
-3
9
27
9
32
56
14
-51
-97
-79
-44
18
19
11
12
-24
-61
-134
-135
-52
2
9
24
39
51
99
52
-4
16
-34
-24
42
21
14
23
30
34
20
58
101
111
47
-65
-110
-99
-11
33
-53
-82
-67
-11
69
53
64
66
-31
-79
-71
-52
37
26
-65
-21
-15
-1
34
-12
-35
-34
16
64
108
129
129
50
-114
-160
-138
-22
54
2
12
41
83
82
-19
-135
-161
-91
-37
-3
72
101
84
183
241
109
-26
-176
-310
-184
-12
-50
-70
4
53
132
168
63
17
-18
-109
-81
12
2
-13
-5
-82
-37
18
1
31
18
38
31
2
52
113
93
9
-74
-95
-19
14
-1
19
59
56
12
-16
-33
-33
-18
56
119
68
-41
-111
-155
-140
-52
31
149
121
-12
-32
-49
-53
2
10
11
47
32
20
85
105
-14
-102
-149
-166
-73
-32
9
61
51
25
-5
6
5
18
35
29
47
16
-20
36
172
212
108
92
25
-178
-121
-102
-245
-150
-110
-82
-24
1
24
-1
86
213
303
167
-31
-193
-322
-183
-1
178
188
-45
-129
-57
-29
12
29
9
32
18
31
29
21
24
11
21
21
50
57
26
-5
-27
-48
-63
-32
8
19
8
34
72
69
28
-14
-12
-66
-112
-77
-62
-42
-1
56
46
6
-38
-24
63
48
36
84
198
210
-34
-195
-231
-203
-93
-44
14
92
95
19
-62
-27
-4
-29
17
21
0
39
61
37
20
-15
-1
83
104
77
49
-59
-107
-47
-92
-67
-1
5
49
32
90
139
52
46
4
-124
-119
-110
-144
-84
-29
-19
-9
19
36
52
81
105
178
190
20
-114
-157
-136
10
35
46
153
22
-46
51
-37
-114
-52
-49
-85
-46
-44
-22
64
34
14
-17
-64
-16
27
58
35
-4
30
42
42
68
38
8
32
36
13
-51
-102
-99
-81
-61
-19
1
9
108
141
39
-46
-90
-89
-21
23
17
92
213
165
19
-10
-53
-96
-58
-50
-39
-11
-27
-36
-12
2
0
-9
1
11
10
13
30
81
89
56
90
-9
-114
-59
-170
-145
-3
-57
-44
75
145
24
-45
12
45
12
-112
-94
-46
40
163
90
7
-9
-110
-111
-2
-16
34
52
34
56
14
31
5
6
12
-9
6
-32
-14
5
21
83
57
-9
-67
-115
-66
-16
2
22
69
301
376
76
-122
-265
-417
-185
34
9
-6
-77
-51
-35
-19
49
51
85
79
59
29
8
24
56
7
-22
31
74
223
213
-39
-179
-178
-160
-76
-6
-21
25
66
42
-4
7
44
108
237
144
-105
-256
-325
-214
-40
0
43
84
45
16
-9
-15
1
14
42
44
7
-10
51
85
37
26
19
-17
14
32
-21
20
34
2
36
17
4
-9
-42
-33
-6
-4
-37
-55
-50
-9
2
-5
37
24
-8
-16
-10
36
79
85
33
-29
38
141
51
-68
-49
-92
-137
-76
-132
-186
-89
-17
7
8
27
50
62
120
90
44
-7
-126
-91
0
97
182
77
22
7
-69
-39
7
34
57
108
170
51
-39
-34
-32
33
-19
-130
-122
-100
-90
-62
-16
-17
-23
-4
-2
54
124
64
-49
-33
-5
-5
22
34
69
40
17
60
-2
-84
-93
-89
-41
12
12
7
23
42
30
7
-1
4
-2
-4
22
26
1
-16
1
14
3
-6
-23
-32
-27
86
273
293
175
-8
-313
-386
-151
-79
-57
-7
-20
-9
-22
15
16
21
58
47
33
-18
-26
-19
14
89
121
40
-47
-34
-65
-16
108
84
33
26
6
12
41
75
49
6
-77
-178
-107
-55
49
189
151
5
-186
-188
-89
32
118
65
-1
-127
-152
-68
-32
12
54
57
20
17
34
32
12
27
40
5
-31
-73
-51
-21
-10
7
-7
37
125
123
52
-9
0
51
52
52
13
-16
-34
-79
-42
31
82
27
-7
-22
-108
-92
-21
26
-11
-49
-59
-27
31
-21
-39
0
69
39
-56
-97
-109
-16
-17
55
219
200
108
-52
-105
-81
-110
-50
-1
-2
-32
-46
7
22
16
17
24
71
95
71
33
-9
-24
-19
-23
-16
-7
16
44
53
29
1
2
-12
29
73
-33
-121
-162
-173
-27
60
34
2
-46
-17
110
199
120
-1
-105
-146
-40
47
13
-36
-41
-21
-9
17
37
12
17
21
-2
0
11
49
60
-18
-22
48
26
2
8
19
92
88
-26
-52
-74
-93
-19
4
-11
-7
2
12
1
-87
-136
-59
49
271
210
1
-11
-147
-154
-105
-120
-65
-57
-11
37
47
29
4
-1
22
67
97
86
41
14
6
38
62
46
23
4
-12
-69
-72
-18
7
37
37
-12
6
62
32
-31
-34
-77
-188
-114
-2
8
86
86
37
-9
-46
-23
-19
7
24
36
52
52
26
-11
9
7
-26
-26
-9
10
16
5
-5
11
62
171
233
105
-87
-208
-256
-200
-136
-107
-21
61
30
-22
2
-1
56
119
125
109
-64
-150
-71
-26
-16
19
49
50
1
-25
66
61
37
42
-2
-5
-7
6
14
7
17
12
1
-25
-28
-3
25
28
20
26
5
-21
-33
-25
9
54
77
43
-46
-94
-103
-96
-13
16
19
36
-9
-40
-66
-68
-12
22
24
43
55
63
53
11
42
28
-14
26
78
112
7
-51
-69
-158
-48
0
-42
-32
-57
39
87
-1
-54
-72
-46
22
21
-30
16
66
14
14
45
24
61
70
8
-51
-114
-65
41
48
26
37
26
-15
-33
-2
44
50
22
-3
26
17
-74
-69
-37
-37
13
6
-31
2
11
12
42
24
-21
6
87
159
166
86
-130
-257
-178
-149
-52
46
-3
-50
-12
78
53
-8
33
52
34
28
3
-17
-15
17
81
119
68
9
-69
-136
-64
-16
-27
4
31
14
24
14
-40
-14
10
-14
-26
2
18
42
69
41
53
7
-29
-41
-99
-69
-64
-89
-48
142
332
230
-14
-178
-298
-202
14
9
-1
23
5
-6
-17
69
128
61
16
29
-2
-6
20
55
83
8
-7
-7
-19
41
2
-59
-54
-32
-16
-10
-19
-60
-59
56
168
110
26
-89
-238
-155
-30
-3
25
61
75
47
73
76
18
-56
-66
-21
-47
-36
-20
-68
-49
5
12
3
10
40
47
52
103
106
34
-7
-63
-117
14
152
57
-34
-83
-85
12
-14
-41
-17
-25
-36
-39
56
73
30
51
36
32
36
20
7
9
14
-12
-49
-40
8
38
32
39
19
-17
-11
-54
-72
-69
-98
-26
28
36
41
-22
-67
-17
34
46
82
59
32
-8
-121
-100
-1
24
2
23
24
-37
-34
-16
-39
-31
29
99
80
-1
-14
12
7
-10
-14
1
-1
-24
-51
-28
42
128
166
73
-2
-71
-115
-41
3
29
46
34
14
-25
-31
-2
23
41
9
-50
-97
-102
-66
-36
1
39
76
43
-12
-12
-19
11
-11
-35
44
27
-33
-60
-102
-76
-21
31
61
61
77
101
97
5
-14
17
1
6
-39
-39
3
11
27
32
1
-7
17
87
218
85
-149
-171
-204
-148
-12
37
29
-4
-17
-24
-31
-5
31
-6
-1
53
35
-18
-52
-11
32
69
69
2
-4
-1
-1
-4
-37
-7
22
3
-4
-28
-26
-10
-1
41
2
-36
59
144
105
13
-1
34
69
34
3
-7
-58
-23
-47
-27
-2
-112
-151
-198
-126
-36
-26
74
77
83
126
117
89
-39
-87
-34
-41
-34
14
22
22
41
27
2
-11
-12
-19
-11
14
9
-9
26
51
22
37
9
-37
-9
-2
-20
-8
-21
-46
-6
-18
-59
-33
36
31
-44
62
230
243
152
2
-119
-150
-144
-143
-116
-69
-19
17
-1
-48
-42
-11
-1
21
61
61
23
45
85
99
49
-20
-30
-42
30
72
19
-22
-112
-105
-36
6
77
117
185
142
1
-71
-213
-279
-143
-16
104
107
-13
57
86
-1
0
-64
-23
32
-42
-40
-5
37
37
44
77
51
-7
-32
-48
-81
-49
-26
-28
23
104
120
-14
-62
-24
-37
23
97
106
9
-95
-114
-88
-59
-48
14
88
149
39
-140
-117
-67
10
56
7
16
85
131
-1
-50
4
-37
-26
-1
48
49
32
52
61
59
-38
-92
-92
-43
93
193
135
-27
-188
-217
-48
41
37
17
-17
-22
-69
-51
42
79
51
-16
-72
-38
-2
9
9
-36
-17
24
21
25
19
23
38
76
57
-24
4
27
39
62
41
19
-97
-145
-42
15
-33
-31
-41
-112
-68
-44
37
125
99
61
-52
-74
-9
52
70
26
27
46
107
94
29
-49
-162
-59
36
12
26
-19
-46
-7
17
9
-19
-69
-68
-44
-53
21
59
52
108
45
-15
-114
-167
-36
-36
-22
12
-5
1
16
72
66
42
68
104
66
-23
-78
-25
97
81
10
-16
-93
-133
-46
22
17
9
6
-21
-41
-41
-12
64
82
75
22
-105
-51
36
53
82
84
162
66
-190
-193
-34
2
-12
12
-3
-16
-2
-12
-36
-36
21
100
85
1
-39
2
-22
-74
-58
-56
-10
-9
-54
-12
39
89
129
137
95
-32
-98
-66
-57
-59
-40
27
71
74
36
-61
-31
11
-2
67
41
-17
-13
-6
-16
-66
-112
-99
-26
4
11
52
69
30
31
129
150
60
-90
-142
-22
8
-40
-64
-56
-32
22
133
187
96
-29
-147
-192
-76
0
-23
-22
16
7
17
69
91
95
47
-52
-147
-58
122
104
54
-10
-186
-137
56
29
-35
-7
7
47
67
51
54
82
98
40
-59
-135
-113
0
20
-29
-31
-55
-7
65
47
56
60
-31
-103
-62
68
100
24
29
-14
14
-12
-97
-4
-10
-34
-24
-16
53
25
-42
-99
-76
16
44
59
67
39
-66
-100
-14
19
72
113
55
-10
-67
-68
5
-8
-31
39
60
71
42
-10
56
-17
-84
-59
-12
72
-52
-81
-51
16
97
-2
-14
-24
57
18
-90
-11
33
60
21
29
22
13
30
6
-9
-73
-60
-17
-5
39
112
81
-44
-99
-167
-134
-8
54
92
-10
-46
42
31
64
26
-19
-11
-10
96
69
-14
-36
-71
14
63
35
26
-56
-147
-94
65
125
31
-7
57
41
0
-65
-155
-136
-47
88
162
97
-9
-42
1
52
63
-58
-130
-12
92
51
-28
-84
-58
22
36
29
-93
-55
108
134
119
-19
-107
-85
-26
11
60
14
-98
-112
-112
-57
-66
-2
145
169
172
89
-61
-129
-100
16
82
52
42
45
83
79
-21
-48
-2
9
-36
-62
-46
-10
-12
-130
-173
-79
-23
37
27
23
62
82
172
180
105
-47
-200
-142
25
81
-23
-65
21
88
7
-155
-77
16
4
51
23
46
132
212
135
-79
-267
-343
-127
14
11
69
108
131
65
-26
-4
150
139
-17
-142
-244
-29
112
-42
-76
-89
-52
72
106
80
173
284
160
-38
-191
-216
47
112
-97
-201
-252
-133
-41
11
112
157
178
42
-39
0
9
5
-6
4
19
50
11
-47
-57
-93
-9
73
14
-1
-10
-31
-27
-17
-9
-22
2
24
-14
-27
-19
17
129
247
239
94
-92
-158
-89
-83
-22
-45
-92
-49
-50
49
21
-12
14
7
149
122
-29
-162
-290
-25
170
12
-36
-102
3
153
117
97
-31
-32
-23
-69
-41
-29
34
44
93
116
82
86
-47
-137
-143
-157
-81
5
66
32
-7
6
9
64
111
105
14
-30
-36
-137
-73
137
127
-47
-81
-72
-85
-47
-67
-106
-119
22
121
46
44
12
9
92
220
262
42
-34
52
54
-3
-136
-222
-213
7
238
172
-94
-339
-261
-26
51
81
26
-109
-68
109
256
263
109
-32
-69
-84
-33
-7
-30
-3
-12
-8
64
119
19
-46
-79
-59
44
-61
-105
-92
-62
15
31
62
54
164
212
27
-187
-288
-172
13
74
72
57
44
36
10
-36
-71
-26
-6
30
180
262
173
-21
-164
-219
-179
-77
-74
-46
52
147
161
-49
-134
-22
-5
-12
31
41
-3
39
78
51
34
7
10
32
91
128
150
71
-101
-129
-124
-53
-71
-160
-133
-152
-32
100
210
214
47
-43
-73
32
-56
-147
-96
-146
11
136
100
57
36
5
-9
44
-6
32
109
89
25
-76
-79
-69
-44
-18
-17
1
40
139
126
-51
-112
-107
-97
-1
3
66
94
18
74
27
4
-11
-168
-178
-132
-95
12
81
57
5
-62
1
44
57
172
127
109
47
56
140
-92
-222
-162
-62
50
88
31
-95
-117
-34
90
128
60
-27
-102
-64
37
62
77
85
8
-32
-115
-72
92
41
29
28
-55
-63
4
7
-8
54
-19
-85
-137
-71
77
59
17
-79
-125
-30
154
258
118
-51
-127
-198
-180
-87
-72
-23
85
163
195
185
212
200
80
-64
-235
-175
39
49
-58
-212
-122
-54
-146
-52
22
77
13
-56
170
369
238
-120
-363
-281
-85
2
110
195
223
118
-104
-145
-176
6
178
182
445
205
-283
-391
-403
-77
147
85
82
22
38
253
435
250
-102
-419
-471
-237
-144
-7
92
109
140
80
52
43
-73
-97
-41
-19
172
82
-69
-32
-78
36
134
197
78
-4
165
64
-127
-215
-207
-66
30
1
-51
-46
-44
-20
21
29
34
68
123
203
137
-39
-173
-233
-26
39
14
-4
-136
-14
57
227
256
67
31
-172
-225
-94
-103
-134
-46
46
85
42
-27
46
149
154
-4
-100
-121
-62
4
-15
63
61
54
39
47
58
-49
-76
-22
107
114
74
-183
-418
-79
14
3
66
-76
-107
-91
35
84
94
135
155
217
71
-46
53
17
24
138
-36
-109
57
-21
-162
-176
-143
26
152
98
-66
-56
41
-14
115
61
-93
-164
-301
-101
74
216
253
-49
-111
-109
-79
241
228
74
-25
-76
49
-163
-206
-142
-144
47
-5
11
33
24
76
60
107
106
104
-27
-127
-61
-44
26
65
2
-17
-22
-4
169
305
122
-212
-393
-297
37
168
161
107
8
181
114
69
-59
-286
-124
-71
22
-22
-81
-53
36
182
-2
-61
-77
24
261
145
-164
-189
12
57
237
72
-207
-100
-159
-104
-76
-51
9
4
54
22
90
107
134
274
282
263
67
-278
-460
-555
-178
55
-35
89
-15
3
7
-1
76
51
77
-2
39
85
30
27
54
89
66
46
-9
-34
-6
-9
-5
4
-4
-9
-7
-26
4
36
-13
-25
49
200
306
98
-149
-238
-248
-88
52
104
128
219
76
-220
-192
-239
-203
-172
-152
16
-33
46
66
29
47
115
195
37
-5
86
140
146
125
53
100
230
155
-16
-255
-343
-167
-128
-243
-178
-39
-23
10
72
124
94
21
-64
-160
-71
11
105
180
66
99
106
34
29
-31
-26
-52
-77
-31
-19
-39
-6
67
4
-8
7
-2
33
-20
-23
-29
84
315
277
115
-127
-331
-177
-57
-26
67
-50
-250
-201
77
122
-36
-54
-20
2
11
64
66
36
20
-6
65
69
25
-51
-32
152
242
258
114
-116
-242
-155
-29
-36
-44
-31
41
-88
-142
-9
15
50
32
17
-73
-87
4
-9
-12
-12
21
48
45
59
39
9
11
36
76
90
19
-6
-15
-95
-132
-110
8
81
93
64
27
94
16
-35
16
7
-44
-127
-99
37
149
92
-52
-127
-109
6
119
2
-12
252
250
-9
-237
-340
-165
69
-4
2
54
-46
-18
-43
90
169
39
46
-33
-64
-35
-50
-47
-43
7
24
42
26
-21
44
86
28
-22
-115
-112
18
-7
-81
-52
-14
59
85
75
155
211
165
9
-131
-203
-106
47
6
28
-59
-137
-50
-52
40
16
-26
22
-9
82
140
84
-10
-87
-42
-1
50
158
57
-140
-154
-90
40
126
117
1
-158
-142
-11
63
37
41
29
8
16
-54
-53
10
7
15
36
33
36
15
11
49
7
-49
-79
-97
71
209
225
175
-129
-260
-32
216
114
-223
-286
-250
-125
38
81
62
81
163
-21
-143
-150
-165
-21
-16
22
117
140
97
-44
-92
-124
-6
139
109
134
125
175
141
-18
-21
-72
-51
0
-135
-113
22
84
103
108
79
-19
-130
-188
-167
-144
-114
-96
-38
66
35
7
85
131
130
90
6
-12
9
-7
-46
-59
-8
14
56
32
-40
-47
-41
49
81
49
-1
-72
-93
-52
104
148
114
212
89
-165
-182
-271
-152
120
-8
-48
37
84
122
43
-71
-175
-90
2
21
29
-40
57
122
33
23
-23
-143
-203
-183
-88
102
225
174
44
85
283
271
94
-17
-92
-171
-118
-197
-321
-89
144
264
155
-116
-133
-76
26
72
-61
-110
-70
-58
-12
94
98
-1
79
135
11
-41
-119
-90
61
249
411
129
-146
-283
-456
-214
17
-26
56
121
164
251
99
-100
-90
-51
-139
-155
-36
-41
-9
100
58
16
54
59
53
69
162
245
93
-84
-152
-171
-33
-32
-2
19
-146
-76
-2
-31
-75
-61
82
139
46
2
-24
22
220
268
247
35
-275
-247
-213
-211
-77
-22
23
4
9
71
85
204
240
227
101
-145
-145
-78
-54
28
144
132
-78
-89
-104
-74
149
-127
-270
-120
-76
93
119
291
431
149
-159
-214
-223
-301
-90
-48
-182
-33
42
-16
-67
-42
7
63
67
66
97
55
65
34
4
9
-26
-11
33
84
109
101
54
34
-29
-92
-48
-12
32
57
-16
-95
-87
-17
62
61
27
-4
-91
-69
4
-9
-27
-45
32
169
190
104
-14
-76
-123
-122
-37
-19
-12
63
216
162
-142
-323
-383
-160
86
33
-26
-2
52
130
230
272
133
-58
-193
-145
96
71
-21
-36
-44
27
159
454
353
-99
-386
-504
-376
-172
-57
159
462
436
152
-115
-446
-389
-137
-47
109
124
62
-71
-98
45
177
376
291
7
-209
-333
-89
-29
-163
-69
-112
9
69
-25
81
122
150
114
32
17
19
158
265
250
292
-46
-344
-186
-242
-46
90
-47
38
-208
-377
-245
-70
89
60
97
232
225
-39
-116
32
106
91
-71
-77
-25
-37
-1
47
84
-1
-56
17
107
117
33
9
51
-94
-227
-118
69
155
70
15
-34
14
130
88
-44
-319
-232
72
94
57
-21
-42
-69
-14
7
-19
48
37
42
7
27
59
61
56
-22
-54
-52
-1
17
21
57
62
11
-18
9
8
56
42
-34
-85
-100
-44
-66
-64
4
72
154
192
154
-24
-201
-219
-119
87
213
94
16
-98
-315
-221
-70
-22
56
24
90
144
87
130
117
-49
-105
-66
-53
11
123
221
1
-225
-244
-124
158
103
41
104
-6
-94
-173
-241
-137
69
127
99
74
65
61
41
35
31
48
42
79
57
21
72
-50
-178
-160
7
70
-11
41
27
24
43
12
-4
-41
-32
67
88
-107
-100
-37
-81
44
-23
-87
-56
-69
-1
-95
-56
81
126
188
29
-159
-164
-52
139
238
197
62
-79
-65
-45
-47
-53
-57
139
217
84
-19
-137
-173
-19
41
-43
-19
59
69
-3
-69
-144
-137
-57
-17
49
87
-17
-117
-13
67
142
190
78
-20
2
124
149
52
-99
-118
-103
-83
24
-69
-129
-66
-39
-5
-8
-2
57
130
134
169
145
26
-68
-53
-9
-134
-41
44
61
-39
-401
-224
-34
10
157
174
148
-6
-27
-11
85
19
-180
-54
5
61
68
68
165
33
-36
-95
-184
-44
-1
11
52
-31
-17
-5
-48
-23
68
154
145
104
-21
-76
43
7
-70
37
62
4
-116
-151
-10
0
-27
-17
30
127
139
44
-99
-91
61
83
0
-5
-94
-159
-79
-202
-108
104
41
60
20
107
242
59
-62
-107
-71
150
68
-122
-100
-78
11
19
-29
-67
-25
165
209
75
-67
-78
39
154
89
29
6
-145
-223
-156
-76
-27
4
-12
8
-2
-17
36
52
71
147
264
175
21
-71
-230
-145
-12
-79
-90
-58
1
41
-1
-36
-22
-14
-44
22
47
11
77
125
72
-58
-57
5
85
186
49
-72
11
1
-56
0
51
116
57
-3
98
7
-26
120
59
-179
-429
-408
-155
140
286
21
-228
-180
-33
84
69
4
-8
-25
-6
61
68
49
36
26
22
59
114
22
2
219
284
130
43
-64
-140
-148
-290
-303
-172
-37
74
140
173
28
-4
59
-31
-42
-12
-91
-112
-17
14
34
64
49
38
38
94
93
42
65
45
-3
-29
-170
-150
-42
-89
22
71
28
56
100
150
158
147
-64
-134
-144
-250
-64
31
160
389
230
-46
-245
-354
-359
-267
-36
-36
-35
64
22
54
65
88
106
94
109
52
32
59
45
-17
-51
-57
-22
90
84
49
49
-54
-86
-89
-74
19
53
88
85
5
-100
-92
60
134
49
-98
-67
-1
-8
102
190
331
278
-122
-188
-162
-370
-280
-185
-211
-71
9
59
72
25
51
120
155
100
12
-61
-32
62
97
85
-19
-40
-36
-51
86
288
402
464
308
-389
-630
-445
-556
-172
130
26
28
-86
-83
27
81
95
112
125
77
60
20
71
162
43
-95
-150
-158
-32
84
92
164
258
107
-100
-98
-155
-52
61
-89
-63
-20
40
119
301
598
297
-112
-291
-565
-392
-169
-157
-19
25
-11
22
87
8
-12
-39
-34
59
165
231
69
5
-38
-59
132
162
-79
-147
-32
27
69
-152
-293
-168
-36
14
-122
-105
-24
15
154
144
29
77
136
66
17
-79
2
185
187
202
77
-67
2
36
59
-22
-175
-270
-266
-74
-24
67
117
-46
-45
-58
-60
36
63
109
282
393
298
66
-216
-250
-22
240
112
-295
-280
-364
-245
206
160
91
-188
-384
-225
-110
140
113
109
300
153
1
-7
-165
-112
90
-6
-28
-17
27
68
175
429
298
113
-140
-409
-336
-180
-4
30
69
35
-27
44
26
62
33
14
74
82
87
46
46
48
125
252
163
-37
-188
-223
-134
-2
-32
-164
-120
-103
-101
37
64
15
24
39
34
8
44
188
218
49
-46
-64
-134
-87
16
168
280
56
-161
-313
-214
47
-104
-249
-223
-111
-95
-45
87
41
95
92
112
170
111
65
-2
17
100
86
19
111
39
-89
-72
-197
-104
-87
-131
28
12
61
49
11
40
1
12
17
35
33
35
19
29
89
198
348
188
-132
-321
-451
-271
-39
15
81
13
34
85
125
217
146
12
-20
-9
-89
-97
-143
-178
-113
-93
-44
4
54
7
26
198
286
252
123
-15
-169
-124
82
71
-84
-292
-424
-199
-1
14
29
-33
67
91
12
23
41
132
163
112
26
-19
-45
13
99
34
-2
-32
29
170
118
-100
-167
-167
-183
-24
-25
5
114
52
29
22
87
108
165
188
131
289
242
9
-271
-660
-589
-286
-146
-31
9
42
65
77
79
71
81
55
46
71
197
380
313
39
-204
-442
-299
15
-43
-2
47
7
9
-7
44
36
43
31
11
11
14
29
7
22
19
2
3
32
32
22
22
-16
-13
-22
-22
-1
-21
-22
-18
0
14
6
2
7
44
143
206
54
-63
-39
-35
-124
-249
-188
-218
-136
61
33
83
54
41
62
-7
14
127
261
291
138
-212
-323
-225
-176
-12
156
376
352
4
-224
-441
-363
-103
-51
73
109
75
66
72
94
42
62
37
-26
-3
22
44
53
39
19
16
12
24
105
156
22
-117
-168
-180
11
154
61
-24
-41
-180
-223
-7
141
192
67
-52
-37
-2
22
22
-16
-134
-94
-46
-63
-41
-56
-28
51
80
9
-35
29
97
36
54
198
187
99
-41
-224
-220
-49
91
69
33
215
298
67
-144
-324
-402
-150
-23
-5
98
97
71
0
-69
-71
-22
14
47
115
185
167
81
-30
-172
-210
-179
-43
79
103
132
171
222
170
42
-163
-178
-41
-59
102
325
182
27
-139
-554
-455
-172
-120
69
62
51
43
36
88
-29
-29
9
-17
26
53
41
19
14
1
58
241
206
34
76
-44
-61
104
-72
-65
-31
-85
-26
-35
-16
-35
-4
-10
-23
11
21
23
99
358
336
11
-251
-479
-456
-110
38
4
62
37
85
206
266
200
-28
-220
-259
-134
-88
-39
92
82
61
26
-11
-6
52
180
100
-53
-63
-1
68
115
180
148
29
-109
-230
-283
-231
-124
-155
-82
42
51
90
66
48
77
140
141
19
-37
-43
44
124
-42
-144
-83
55
192
49
-114
-149
-184
-64
106
96
141
211
37
-79
-114
-152
-24
16
12
115
202
219
82
29
-134
-300
-133
-186
-173
-12
9
66
31
50
46
19
45
-11
-38
41
162
181
83
-89
-184
-149
12
56
-44
-5
-54
-67
27
10
2
-22
-20
32
37
41
84
183
164
-16
-110
-168
-59
137
124
64
-9
-28
-24
-64
-168
-241
-125
-4
81
79
21
32
60
87
77
71
98
72
-6
-125
-117
22
13
7
-23
-78
31
-30
-78
-54
-114
-9
107
133
71
126
237
-4
-96
-48
-202
-67
2
-109
-77
-112
-94
-31
36
46
81
159
163
132
79
-9
-181
-134
-90
-94
36
29
62
57
-30
-5
33
24
33
14
-37
1
27
32
35
15
18
24
9
-11
11
-3
-34
-8
-6
-7
-6
-26
-13
-18
13
17
-16
24
31
75
108
155
227
39
-101
-186
-377
-239
-105
-76
42
-1
36
56
74
110
18
22
66
74
46
25
1
71
167
-29
-249
-237
-134
-39
-5
10
46
59
14
7
-3
-37
22
52
27
20
4
17
71
185
294
165
-34
-169
-336
-188
188
218
-98
-233
-193
-162
52
129
117
77
-81
-67
-25
69
66
-2
115
51
-42
30
-66
-154
-89
-22
84
97
-8
-44
42
34
-29
-14
-24
19
19
-10
2
15
104
190
125
-12
-79
-181
-190
-1
36
-11
45
40
26
32
52
87
54
-4
-101
-122
-45
-54
-27
-4
-34
-16
-7
10
22
38
94
139
99
49
31
-4
55
-57
-239
-172
-181
-106
44
89
99
55
82
91
100
-7
-81
-26
-95
-37
11
-2
21
60
154
102
-21
-162
-200
-52
77
79
4
-47
11
90
4
-44
-34
-32
11
-10
-27
-51
-32
2
-3
181
471
385
-47
-257
-341
-321
-129
-92
-25
6
-27
87
105
62
66
22
-28
13
38
31
44
-3
-5
-2
-22
-34
-39
-6
23
61
73
44
-22
-61
-44
24
65
22
24
29
23
16
-72
-103
-56
-73
-78
-28
16
19
16
49
93
96
2
-45
22
77
129
22
-140
-41
-22
-89
-37
169
363
20
-247
-301
-376
-130
-12
54
145
45
-16
-7
34
84
68
21
2
16
73
68
30
39
61
62
11
-44
-72
-52
-22
-19
-1
22
29
23
25
18
-7
-7
9
-9
-44
-12
36
9
42
114
95
64
24
-64
-143
-183
-152
-77
-21
77
150
94
22
5
23
1
-77
-101
-124
-152
-135
-52
52
94
114
83
45
15
7
51
-7
-56
-16
27
27
-11
56
120
90
6
-80
-74
-44
-24
-14
2
16
-6
-31
-33
61
169
118
-12
-89
-94
-86
-119
-99
-14
73
74
20
29
64
79
-19
-71
-10
-29
-44
-29
-27
42
114
22
-25
7
-20
21
29
7
9
10
11
-1
12
24
1
-4
32
122
172
50
12
13
-36
-70
-117
-106
-201
-207
-134
-92
47
102
95
42
-100
-157
-71
10
177
276
97
-27
-160
-170
89
85
9
60
27
59
52
30
46
7
14
-2
-11
-4
-32
-16
-2
-7
-9
-12
-33
-49
-36
-29
-7
2
21
39
31
72
230
324
110
-140
-320
-359
-109
27
-39
-22
61
87
46
4
53
107
2
-99
-95
-80
-97
-121
-16
188
213
-16
-79
-23
-50
-4
95
285
316
134
121
-14
-227
-153
-260
-347
-154
-79
-15
24
16
22
-12
34
70
52
53
47
49
49
41
18
8
18
11
1
-12
17
35
10
21
21
11
12
12
6
-17
-16
-3
4
37
110
115
-34
-160
-157
-94
-15
-4
-19
26
57
11
20
90
77
4
-101
-63
21
-12
-35
-72
-105
-111
-61
31
110
150
61
6
-31
-74
-1
-21
-28
1
-1
60
81
72
77
94
56
-105
-113
39
87
94
-48
-172
-159
-126
-21
32
96
140
114
18
-32
102
148
-24
-195
-251
-161
11
53
31
17
-21
-18
11
43
56
41
7
1
34
18
3
48
27
15
35
-50
-66
-16
20
73
36
14
8
-18
4
-32
-64
-26
-1
-5
36
87
10
-89
-90
-19
78
97
101
128
79
65
-14
-155
-249
-252
-147
-90
40
51
42
102
36
2
-26
-15
-15
26
74
35
13
-39
-33
9
47
74
119
193
112
-47
-99
-139
-166
-71
-36
6
81
24
-32
-17
46
111
115
37
-75
-76
-51
-39
5
39
120
100
-74
-208
-168
-84
-42
71
116
67
37
39
41
19
21
15
14
11
-26
-32
-14
2
-27
-41
4
-62
-41
39
65
97
6
-33
22
104
142
65
2
-71
-117
-65
-52
-47
-19
-22
-54
-38
-10
-67
-74
-72
-47
34
59
81
42
67
87
12
79
86
-9
-51
-51
50
74
-42
-62
-21
-46
-15
31
20
44
7
-32
-18
-1
29
51
-9
-137
-45
85
119
129
-3
-135
-153
-37
-13
-4
81
19
-37
-67
-47
31
34
19
11
-13
-22
7
10
-4
-29
-31
16
59
81
58
52
22
-39
-21
-19
-27
-26
-14
33
59
63
17
8
31
-83
-168
-85
-4
87
160
120
84
-50
-193
-192
-62
107
179
224
85
-109
-130
-124
-77
-4
-14
-61
-58
-104
-83
-14
4
62
83
94
77
76
49
26
82
-28
-60
34
9
-7
47
122
53
-19
-105
-178
32
142
27
-62
-170
-191
-31
30
-1
22
-12
-2
-9
-21
13
28
71
49
-12
-11
11
46
94
90
59
-12
-72
-15
0
-12
-33
-41
-36
-73
-9
29
42
109
131
111
4
-165
-136
12
31
-16
-163
-135
78
214
232
-16
-206
-222
-125
-39
-101
-11
57
64
66
31
43
15
94
167
113
-7
-94
9
78
16
-54
-110
-37
-1
-52
57
108
44
24
2
-31
-39
-15
-34
-61
-44
-26
-42
4
0
-15
56
29
4
36
104
123
87
85
73
-35
-224
-245
-177
-93
-7
19
59
38
42
30
13
64
37
-1
6
52
89
37
-11
-61
-82
-7
54
24
-20
-21
-34
14
38
-25
-49
-71
71
161
29
-32
-131
-108
30
19
-17
-42
-25
-28
-4
71
61
49
7
-17
26
24
15
-5
-4
5
49
71
9
16
-26
0
74
-53
-146
-109
22
88
-18
-52
-2
1
10
70
119
74
-46
-89
-95
-77
-20
-54
-41
-21
1
76
84
3
-84
-79
-52
115
193
-10
-44
-23
-75
15
42
22
29
2
17
11
7
28
17
37
71
55
45
36
-47
-106
-73
-56
-59
47
144
47
-179
-175
46
90
61
-53
-141
-5
59
17
-53
-107
-8
85
74
49
-15
-39
-44
-69
-43
71
196
160
92
-36
-139
-27
50
74
132
36
-175
-197
-95
-17
75
122
124
90
63
-9
-44
51
-13
-105
-135
-139
-4
26
-62
-129
-59
16
-39
-71
15
107
89
75
45
11
11
0
-11
27
31
-17
-62
-97
-26
13
28
67
27
31
43
14
33
36
0
7
11
-15
4
61
163
180
38
-130
-77
31
-127
-164
-120
-92
-17
-17
29
9
-59
-42
-4
42
96
25
-29
-1
-2
31
-32
-65
13
77
53
22
57
27
45
64
37
100
145
74
17
-127
-348
-217
-20
112
198
24
14
37
-89
-117
-173
-185
-78
5
91
178
137
11
-80
-61
39
25
31
98
183
189
-27
-127
-163
-95
21
-112
-64
27
-46
-25
-31
-24
87
209
276
208
-1
-239
-379
-232
-25
-12
34
-6
-12
82
75
60
-1
21
46
19
34
25
21
9
12
42
110
104
15
-19
-104
-119
82
219
63
-104
-112
-101
-50
-36
83
211
193
112
-102
-204
-278
-294
-122
-34
-1
-6
-12
-7
39
183
255
95
-94
2
23
-39
9
-21
6
2
-27
-66
-107
-31
89
174
115
15
-59
-27
-51
-33
160
141
59
-48
-90
-27
-76
-52
1
0
20
29
-41
-42
155
169
-41
-167
-190
-167
-79
-12
-66
-41
6
2
43
85
134
188
125
2
61
87
-16
-82
-64
-79
-100
-1
7
-54
-57
6
82
130
85
7
59
6
-82
-131
-191
-54
57
29
32
24
15
87
76
4
62
3
-159
-220
-150
1
136
208
115
144
205
8
-156
-159
48
147
66
69
17
-45
-24
-130
-316
-218
-74
52
159
67
-10
-143
-118
67
151
154
51
-31
-156
-133
66
138
55
-4
4
-66
-72
-59
32
66
4
46
55
119
46
-32
32
86
85
-59
-92
-57
-1
62
113
64
-144
-234
-212
-70
-26
-2
59
19
94
208
242
35
-165
-188
-34
120
-30
-87
-55
-65
-47
-41
-20
34
49
9
31
24
41
74
72
114
160
63
-122
-181
-46
87
-7
9
-66
-213
-71
-127
-46
100
67
116
104
259
297
68
-29
-81
-95
-82
-199
-144
-64
-95
-2
14
17
102
117
62
64
-81
-206
-99
-20
12
-41
-7
29
54
82
91
232
178
-59
-229
-168
-44
-47
-98
-108
-37
-36
81
147
44
81
111
77
92
146
114
-31
-147
-150
46
60
-41
-25
-126
-19
29
-6
40
-7
133
170
29
-122
-271
-213
-27
4
-43
22
81
93
48
24
134
171
92
-81
-255
-153
-70
-6
173
89
-52
-79
-102
-81
-42
21
79
116
42
-13
23
-6
46
-3
-57
74
30
-26
-95
-129
-43
-9
90
106
49
11
-26
-75
-74
18
126
184
21
-64
-8
79
172
72
-4
-24
-16
-102
-258
-262
-89
42
20
97
-4
-61
2
11
105
46
-22
-44
30
197
148
-31
-62
17
51
44
-44
-76
-76
-77
-66
-15
141
168
124
-32
-150
-63
-57
-39
-25
-95
-107
-89
-21
57
64
50
-21
-55
-59
-48
3
-1
66
200
222
127
72
62
43
-24
-81
-28
16
-46
-137
-72
-42
-37
58
72
38
1
-12
-104
-119
-42
6
47
-27
-67
-48
21
27
39
60
51
93
-17
-52
11
90
72
-100
-208
-115
236
232
-52
-175
-177
35
106
80
75
-9
36
-7
-46
-49
-86
-9
40
67
53
-17
-47
6
26
18
22
-11
-36
-22
46
27
-52
-112
-42
118
-13
-97
37
62
14
-57
-69
-31
44
81
122
174
41
-12
-1
-42
-34
-130
-166
-123
12
151
6
-134
-154
-55
23
58
135
26
-20
42
75
74
57
155
91
-62
-27
1
34
57
-121
-202
-100
-73
49
151
34
-79
-161
-69
56
29
55
-35
-28
95
26
53
112
67
29
-26
-42
-109
-179
-93
-8
39
46
38
24
-2
77
57
60
86
-2
35
7
-21
7
2
38
34
10
2
-14
-80
-59
43
125
53
-150
-280
-297
-87
107
177
148
53
-6
-39
62
39
-35
-62
-61
18
-75
-109
9
137
182
162
54
-161
-133
-57
6
49
15
60
-4
-44
-21
-13
46
63
-4
-30
19
99
212
81
-135
-225
-200
-47
-104
-135
19
60
137
174
-9
34
100
-77
-70
42
88
-5
-67
-117
-100
62
62
52
32
14
22
-14
49
34
-41
-18
1
18
30
10
4
-9
-62
-31
159
227
75
-116
-182
-152
-101
24
115
192
28
-167
-138
-82
4
-53
-67
-45
-77
-30
105
217
112
67
84
57
-9
-160
-120
-77
-52
2
-21
25
18
35
21
-12
1
-19
-22
-34
-3
79
78
-49
-16
27
12
66
17
156
281
105
-22
-178
-217
-85
-118
-12
106
35
-45
-93
-4
60
9
-56
-7
52
-26
-68
-31
19
44
27
25
-20
-40
41
30
-41
-121
-105
82
176
154
76
9
9
-5
-21
-56
-46
-18
-32
-10
-11
-53
-18
125
169
32
-119
-185
-112
12
40
16
1
-43
-36
46
104
85
10
-33
-105
-105
-22
24
130
76
7
89
180
134
-115
-267
-256
-68
185
177
76
16
-105
-85
-23
-47
-27
-27
-20
5
28
21
40
61
64
126
33
-178
-175
-1
50
29
19
-32
41
137
52
-8
-18
-9
11
-15
7
-38
-108
-142
-98
95
173
54
-36
1
62
41
-39
-37
12
9
-4
-6
10
14
21
75
29
-76
-57
-57
-126
-71
49
77
-12
-197
-115
80
155
222
108
57
30
-122
-139
-128
-93
76
124
19
-95
-160
7
142
31
33
35
-54
37
84
-23
-24
-6
16
77
62
40
17
-42
-74
-27
3
-11
41
85
1
-65
-123
-112
126
170
-15
-130
-190
-127
36
66
45
36
-19
-77
-74
45
65
65
20
-61
-64
-11
102
179
240
133
24
-93
-167
-32
-49
-79
-41
-54
-31
5
37
69
47
-80
-97
-35
49
148
52
25
171
271
218
-41
-217
-325
-422
-266
-57
39
71
94
97
120
99
-85
-28
17
-67
25
-26
-39
9
-1
48
43
51
95
37
-33
51
82
22
28
-9
6
134
157
19
-133
-148
-90
-152
-214
-22
201
278
137
-100
-183
-170
-11
42
4
55
17
-115
-222
-220
-52
164
256
176
-36
-56
6
23
39
-11
21
46
76
77
-14
-62
-42
16
47
-8
-23
-6
-11
1
-12
-4
-1
89
193
85
-85
-149
-95
-54
-107
-100
-3
36
23
22
67
174
62
-118
-122
-101
14
21
-21
14
-4
37
10
11
51
62
25
-59
-38
-72
-9
49
20
34
6
56
11
22
90
100
104
-114
-219
-205
-112
37
-12
165
230
-4
-100
-152
-94
-51
-21
32
-16
-14
41
101
89
85
71
17
30
-14
18
30
-9
-26
-66
-6
-3
2
68
62
-42
-175
-178
-64
47
119
140
136
183
80
-52
-104
-148
-15
-46
-149
-45
50
89
1
-114
-89
-68
-88
-19
7
32
107
62
72
102
14
-52
-18
48
79
90
13
-36
9
14
29
26
61
79
-43
-133
-175
-128
-31
-21
27
50
1
8
-1
-29
-26
-23
12
67
6
-104
-86
58
221
162
49
98
26
-153
-223
-58
24
-27
46
-45
-114
-87
-59
30
77
159
112
71
173
230
145
-74
-176
-192
-156
-84
-17
100
46
-72
-111
-61
62
71
126
125
-103
-221
-120
22
140
99
-42
-95
-71
3
-4
31
51
36
71
22
-46
-32
102
84
-25
-52
-98
-67
-11
-29
-29
12
27
40
25
36
32
-9
-4
-1
4
2
7
40
127
213
155
-33
-157
-188
-214
-149
-49
21
63
24
17
69
86
104
122
102
-41
-204
-103
-53
-44
-26
-134
31
172
90
-29
-144
-42
22
-12
41
34
14
17
29
32
26
44
39
41
3
-24
1
-14
-36
-54
-22
43
8
-14
7
42
85
12
-70
-89
-65
1
-14
-13
41
60
92
130
39
-102
-125
-124
-17
31
-15
22
-32
-2
21
0
29
-14
-23
3
66
73
41
42
16
-26
-102
-89
-4
-2
17
45
20
11
23
62
69
-2
-71
-120
-129
-32
100
169
169
9
-95
-44
-100
-41
125
115
-52
-201
-121
-5
24
-12
-39
-49
-84
-52
4
77
81
71
58
-6
9
41
58
90
59
-19
-20
-36
-51
9
-1
-28
-22
-24
6
26
46
44
36
44
-3
-85
-129
-39
23
-28
82
145
44
2
-53
-90
-42
40
22
-52
-69
-34
36
16
-84
-103
-45
-43
-52
24
157
211
77
-34
-12
2
-19
-17
43
94
61
-11
-61
-61
-24
-20
43
66
-7
-51
-90
-26
-7
-10
31
-32
21
151
245
209
-18
-208
-303
-170
74
27
-122
-119
-30
-16
-40
9
11
47
149
140
52
12
58
45
-64
-65
22
29
-14
-47
-92
-33
22
-7
-22
-4
101
102
55
49
-13
-25
-46
-72
-42
20
44
20
-21
-22
71
71
29
-24
-89
-4
56
30
9
-63
-115
-114
-96
-2
29
-12
53
90
110
47
-100
-102
-21
19
65
145
40
-77
-34
20
54
-15
12
74
21
-42
-88
-64
-30
11
1
-21
-19
-41
-22
-34
-1
69
46
49
-14
-6
100
4
-14
7
-17
19
-11
-12
-24
-29
-21
-14
36
69
33
-61
-17
107
109
20
-41
-87
-90
-59
-40
16
27
19
22
14
34
13
-90
-85
7
-39
-50
72
36
-41
-7
-17
-2
-2
14
24
3
21
4
9
10
20
35
29
9
-9
7
-10
27
69
90
84
14
-32
-106
-79
6
38
42
-19
-33
-23
-74
-88
-2
-10
-70
-50
57
241
207
-2
-158
-200
-91
-12
16
27
16
17
7
31
47
67
47
-17
27
-26
-154
-37
94
60
24
18
1
-32
-14
-3
4
-1
-43
-29
1
38
92
77
-1
2
-13
-34
17
-8
-81
-84
1
-17
-16
18
-4
26
-12
21
31
4
40
-27
-67
-74
-39
1
-15
-1
2
17
28
62
74
39
46
91
121
66
-51
-169
-100
-3
-6
42
21
-26
-77
-90
-2
16
21
49
9
-14
31
121
181
137
-68
-270
-240
-110
17
109
-42
-115
-1
7
87
97
10
-16
-12
21
-19
-34
-11
-11
17
21
9
2
-8
12
82
102
-1
-93
-64
76
142
84
-24
-145
-90
-7
43
95
49
56
39
6
-15
-40
-1
1
-49
-77
-58
-41
-39
-10
49
114
113
23
-100
-171
-84
19
7
46
57
19
25
-4
-10
2
-2
0
1
12
8
2
5
3
4
-14
-20
-2
0
2
23
54
34
-16
-21
6
59
105
142
46
-138
-139
-82
-50
-94
-117
-26
-56
-79
-34
19
74
93
88
37
12
-2
34
47
-12
-24
-21
11
61
67
54
41
-2
14
7
-54
-67
-80
-66
-69
-12
39
22
69
52
67
89
16
-10
-26
-31
-19
-15
-31
-51
-9
4
-8
13
3
4
15
-1
-13
-4
-17
-45
-25
-13
-11
7
41
55
34
51
19
12
67
20
-49
-99
-119
-89
-44
36
31
1
34
22
15
9
32
49
62
100
26
-44
-115
-117
-19
-26
26
77
43
-31
-82
7
36
44
66
36
23
-7
-51
-67
-36
13
49
46
7
12
12
-22
-19
-14
1
-9
-92
-54
27
62
152
99
-12
-74
-114
-84
-88
-31
21
22
40
37
49
17
-24
-32
-21
24
63
85
-2
-81
-42
-32
-27
20
19
-4
9
19
19
4
-3
7
-10
32
74
40
28
19
-23
-21
1
-28
-67
-74
-48
-6
82
128
115
89
4
-65
-144
-165
-75
-2
44
52
22
18
41
-62
-164
-120
-47
34
90
114
29
-44
-53
-19
52
16
-23
-43
-2
12
57
94
61
71
-76
-102
-22
66
165
96
24
-61
-84
-34
47
127
47
-20
-61
-49
25
24
42
-22
-89
-135
-129
-14
11
7
-108
-198
-113
56
143
102
57
29
32
29
74
141
145
77
-48
-145
-62
2
-7
21
-29
-25
-8
22
66
31
31
-8
-62
5
118
59
-83
-172
-128
34
15
6
53
-4
-62
-39
-17
-31
65
49
24
23
-3
47
-55
-59
0
62
124
-18
-71
-87
-19
75
74
72
-18
-57
-43
14
-7
7
64
-27
-26
-34
-71
-81
-56
38
45
60
60
-1
-14
12
41
6
-34
-26
7
54
35
4
23
19
-26
-57
-83
-36
11
-6
-19
-73
46
142
97
82
-66
-121
-6
45
64
184
85
-151
-121
-81
-89
-82
-49
1
33
87
22
-6
-12
-62
-29
-11
23
43
29
46
48
41
-4
-67
-62
-1
43
6
-52
-52
-4
88
84
-42
-85
-61
51
144
146
190
57
-111
-135
-166
-23
64
-10
-107
-152
-18
26
73
77
-22
-22
-47
-34
-4
36
38
-21
27
24
-2
21
-1
26
47
66
128
55
-52
-56
-83
-75
-42
-63
-22
-17
33
293
348
66
-195
-316
-173
-27
-86
-51
42
136
137
59
-36
-90
19
27
-39
-51
-27
10
-5
29
90
124
51
-103
-129
-52
39
12
-61
-49
-31
125
425
398
-85
-379
-345
-154
7
-49
2
16
-15
15
-51
-31
47
87
99
28
-41
-5
34
55
44
-3
-2
2
9
-5
-6
6
-7
14
26
29
39
24
7
69
87
-16
-89
-115
-36
-16
-71
7
-31
-97
-44
59
119
109
176
173
49
-234
-309
-49
46
-105
-175
-13
26
54
63
1
39
22
41
50
68
71
-5
-57
-93
-34
-8
-10
87
129
100
72
6
-122
-104
-16
-51
-24
-19
-8
-10
23
98
82
105
-54
-39
83
-69
-95
-66
69
110
79
82
-59
-149
-188
-77
21
17
18
7
-4
-38
-3
4
20
70
92
37
-70
-47
47
67
-6
-39
-87
-155
-152
-14
182
300
318
142
-85
-260
-244
-112
-51
51
87
50
70
105
21
-43
-49
-64
-16
7
32
-7
-19
36
4
-45
-100
-84
-62
11
130
145
190
37
-167
-185
-153
31
90
104
125
-20
-83
-72
22
-5
-68
-15
6
32
11
97
119
39
155
187
-55
-234
-183
-92
-103
-101
-92
-79
85
178
129
100
89
58
74
39
-60
45
82
-96
-118
-105
-143
-88
-137
-88
127
130
114
46
-66
-32
-128
-76
53
37
98
30
-35
-26
-19
-62
-47
90
46
19
40
-39
11
32
6
42
64
77
98
199
12
-219
-152
-79
62
213
165
-45
-137
-158
-97
-64
-44
71
3
28
8
-90
-66
-31
44
32
56
125
103
46
-20
-94
-87
-44
-47
-7
-42
-81
-54
-7
170
262
202
169
7
-183
-210
-186
-67
-4
-4
76
165
172
-9
-90
-72
-38
-68
-152
-52
-39
-26
50
120
208
144
5
-110
-133
-62
33
17
-49
-39
69
212
117
-100
-178
-149
-22
47
112
74
-135
-88
-19
-27
19
11
21
-79
-95
47
180
379
271
-130
-351
-292
11
64
10
81
126
149
-46
-174
-94
44
17
-12
24
13
92
96
57
-72
-107
-14
-65
-71
-66
-42
14
-27
-8
30
55
76
66
69
83
102
22
-147
-291
-98
99
95
132
-15
-12
7
-29
9
-17
34
20
4
30
144
249
139
-162
-353
-172
-66
-21
18
-22
57
85
-6
-131
-76
47
87
59
38
67
40
118
60
-21
7
-90
-124
-120
-67
-41
-97
-42
93
118
67
19
16
55
47
130
164
61
-110
-268
-192
-65
31
69
81
20
-112
-31
46
132
14
-307
-229
14
188
302
195
-8
-62
-86
-79
-14
75
122
95
164
281
159
-162
-381
-358
-107
-59
7
81
-99
-112
-77
85
173
29
27
4
26
129
115
-82
-280
-144
123
166
56
33
36
10
-24
-7
82
165
58
-15
-32
-100
38
34
4
-75
-187
-123
-66
19
52
43
-30
-61
-24
11
31
53
128
133
65
-37
-95
-116
-119
-92
-15
94
101
64
-110
-287
-77
150
150
44
-54
67
148
124
17
7
66
-25
-67
-124
-65
-72
-44
51
-16
16
9
9
36
117
203
71
-44
-87
-83
-52
-136
-150
-120
-60
60
68
107
33
-24
87
130
156
19
-154
-142
-54
-57
-52
27
107
200
57
-160
-44
67
49
135
56
-54
-115
-196
-26
125
39
-81
-103
-41
61
195
219
-17
-238
-213
-43
50
-78
-92
41
90
64
-22
-67
66
228
80
-64
-54
-32
-12
-77
-14
56
-34
-41
26
-9
-3
34
34
14
-41
-4
4
-27
-27
36
133
50
-66
-20
17
19
27
-21
-34
18
88
17
-64
-29
-42
-6
-14
-18
5
-14
19
0
-6
74
206
245
32
-261
-212
-95
-92
78
138
125
-9
-137
-44
-15
-26
-105
-119
110
225
135
-65
-281
-81
56
-59
-19
-51
31
69
37
-39
-106
60
79
147
153
79
181
133
152
63
-222
-308
-281
-74
8
-29
38
-42
-14
2
-36
-7
28
49
-6
29
25
21
35
11
9
-26
-7
3
4
6
9
66
113
39
-66
-94
-87
23
71
46
39
15
0
-27
-10
47
91
57
-102
-190
-74
-8
44
42
-37
-7
6
21
8
41
69
16
28
51
83
-4
-82
-22
-63
-125
-95
-16
36
-5
-12
14
50
64
-13
-45
-72
-40
91
63
2
8
-114
-99
75
222
339
139
-139
-258
-168
-25
-74
-57
-7
15
17
29
31
18
51
30
22
-32
-24
90
125
193
56
-205
-202
-154
-97
-24
14
14
-6
21
20
47
69
5
-90
-97
14
69
84
109
84
52
-26
29
169
44
-82
-104
-117
-32
-4
-25
-2
14
19
-6
-21
45
90
62
30
-38
-64
-63
-82
-2
19
-14
-17
-41
-40
-24
27
119
208
198
92
-47
-168
-190
-203
-190
-64
95
127
106
-2
-137
-127
-34
147
180
20
-23
20
12
82
68
-7
-26
-63
-47
-34
-13
24
66
9
-41
30
10
66
80
1
26
-145
-195
-75
-71
57
137
193
138
-132
-254
-193
81
402
354
114
-177
-263
-37
-105
-185
-101
-56
-1
-1
72
57
-24
-54
-14
55
74
102
52
-20
-52
-24
32
34
46
20
-31
-55
-42
-3
2
-6
-17
1
45
57
24
32
31
16
194
237
-77
-261
-265
-119
81
-12
-26
45
-2
7
5
-2
2
7
-17
-4
51
22
-42
-58
-14
47
121
223
247
53
-148
-95
-27
-15
12
16
-19
-127
-230
-273
-61
168
187
102
2
-12
-51
-16
-17
-27
19
2
27
15
3
41
53
128
125
1
-79
-109
-59
-30
-12
34
-42
-120
-66
7
38
72
34
11
71
118
9
-181
-195
-34
89
-1
-68
-22
-16
6
27
64
65
19
59
41
47
107
85
93
-16
-69
-79
-120
-22
-84
-78
36
51
50
51
89
-5
-46
-107
-150
39
76
79
87
-35
-31
-32
-44
33
-49
-99
19
74
102
67
-84
-46
4
-69
-25
30
72
36
33
108
81
5
-30
-92
-106
67
126
152
4
-346
-389
-313
-65
84
19
116
172
156
88
42
47
88
84
-27
-74
-60
-4
52
71
0
-60
-25
12
66
32
19
-19
11
105
-15
-41
-66
-84
-7
-11
66
72
0
1
12
-12
-159
-187
-73
-31
0
-1
2
19
54
102
83
45
9
-1
41
69
24
-27
-51
-50
-17
-11
3
12
-12
-49
-4
31
-66
-14
85
59
-30
-105
-91
-7
115
71
22
47
-15
-44
14
44
37
20
-31
-12
-7
22
83
110
153
54
-113
-194
-230
-132
-35
-9
27
-59
-21
37
-7
48
29
23
22
4
22
21
35
20
21
29
46
45
6
18
14
7
10
-22
-26
41
98
9
-90
-89
-82
-57
-3
10
3
14
21
24
-7
-7
39
6
10
35
24
49
82
162
45
-193
-249
-195
-75
18
84
59
11
34
43
16
-34
-30
12
17
-22
11
89
7
-89
-8
21
32
32
-6
24
37
76
-6
-71
-87
-93
-38
-36
4
14
2
-16
-2
39
29
20
19
36
34
27
34
72
68
-24
-82
-73
-24
4
6
-7
26
119
70
-61
-78
-38
-31
-95
-109
-9
37
27
16
20
21
12
32
22
-7
-6
20
40
33
25
69
109
24
-98
-122
-46
-31
-43
-2
-26
-44
-67
-64
17
131
130
28
31
26
42
48
-3
-23
-37
7
38
74
50
-40
-71
20
153
22
-135
-188
-115
67
66
84
-37
-166
-85
-139
-80
-24
10
60
-28
-9
66
120
120
119
49
-2
11
-86
-68
16
33
28
-14
-31
-4
-2
-17
8
61
78
21
-39
-74
-35
12
-27
-12
7
24
44
24
24
12
4
6
1
-1
-4
-15
-16
-8
-11
-10
-7
-6
-8
-9
-6
1
17
17
-22
-46
22
145
173
51
-121
-211
-138
-16
74
78
-22
-59
-76
-52
37
22
36
68
79
62
-46
-85
-96
-34
41
56
126
150
77
-22
-27
-7
-73
-185
-203
-46
66
55
58
26
-17
-16
-41
-61
16
134
139
71
-32
-151
-80
31
-1
12
20
22
31
-6
-6
-2
4
-5
-8
16
54
64
9
-21
-1
6
-32
-36
-17
-24
-3
-6
1
46
46
-25
-52
4
-1
-17
-26
-19
50
118
159
49
-70
-78
-9
16
-114
-129
-77
-44
-36
-32
-13
34
202
169
41
80
76
-20
-94
-126
-139
-77
-36
42
96
23
27
22
-2
-4
-24
-39
-37
-15
-14
13
23
21
28
17
52
125
90
-59
-108
-110
-41
-7
-55
23
7
1
22
-2
6
-13
13
15
7
14
14
22
3
0
-1
-12
-19
20
30
18
24
-18
-3
13
-7
-10
-19
-12
-11
22
70
146
132
-66
-140
-152
-122
17
-18
-21
25
12
19
-22
-7
17
40
54
38
-24
-33
34
-6
-12
-16
-26
50
93
69
39
50
56
31
-60
-114
-167
-117
-21
-52
-17
1
66
87
46
70
31
17
8
-40
-52
4
101
152
87
-61
-212
-184
-24
16
-1
-12
-12
-14
-12
19
42
30
20
54
62
28
-4
-11
-20
-33
-44
-36
2
-7
-20
-2
19
45
40
-2
-8
15
-8
-29
-16
26
77
75
11
-49
-50
-24
-1
1
-1
12
48
43
-36
-114
-92
9
46
67
-8
-71
39
22
-7
90
146
140
26
-96
-145
-135
-32
118
132
14
-159
-242
-79
4
74
135
36
-2
-94
-144
-51
46
76
53
60
67
22
-66
-16
36
19
90
84
46
19
-110
-109
-52
-33
6
3
24
-23
-13
19
-23
16
59
134
129
-3
-115
-156
-64
-17
-32
7
6
1
10
20
41
47
65
46
17
-11
-32
-22
-50
-47
-36
-23
14
7
26
11
7
12
-9
11
9
5
-25
9
44
-17
-3
9
16
-26
-63
64
106
94
51
-13
24
-122
-147
113
286
154
-152
-208
-283
-160
37
1
84
14
-54
-62
-63
19
28
30
1
-12
32
55
85
133
1
-58
24
-37
-19
-16
6
60
-11
-23
22
50
44
31
-9
-52
-74
-62
16
58
33
-54
-79
-29
7
94
43
-6
84
22
0
25
1
26
12
7
-7
-19
-2
43
148
145
-31
-172
-198
-114
-13
-32
-21
-3
-11
-7
0
27
30
42
26
19
22
12
29
32
26
1
-39
-80
-67
-49
-20
61
100
131
99
27
2
-51
-111
-192
-160
11
115
109
-12
-57
-9
53
119
65
-37
-86
-81
-57
-19
-21
-34
56
181
120
-77
-185
-202
-17
70
-16
14
37
62
16
-39
-82
-44
193
310
214
-7
-206
-185
18
1
-100
-57
-56
37
4
-12
36
-7
31
29
26
-8
-16
11
25
82
90
14
-100
-117
-59
-1
2
27
82
68
78
119
111
60
48
-71
-209
-190
-165
-85
-55
-67
30
44
49
94
136
200
-19
-223
-105
-78
20
61
-12
-4
-55
111
145
62
127
57
-64
-134
-47
38
54
36
-32
-32
-22
97
304
271
-47
-237
-355
-272
27
-44
-31
0
-77
25
-16
-26
14
77
77
2
34
54
107
84
47
-17
-102
-103
-159
-81
34
44
90
77
-1
-7
2
-7
26
72
109
39
-120
-182
-99
-21
31
124
261
300
122
-37
-181
-228
-22
65
-32
-57
-14
2
-63
-52
-22
-67
-12
-1
-9
5
-13
9
1
-16
-10
27
61
42
9
-7
3
7
17
25
-19
-64
-44
-21
21
41
-13
24
46
7
36
24
24
24
-29
-104
-138
-54
70
161
181
229
203
-32
-273
-327
-188
-45
48
69
112
160
47
-25
-122
-142
-49
-23
40
4
22
69
62
27
-94
-38
7
1
21
-47
-47
9
48
46
54
58
38
33
26
30
8
-12
-6
-1
-2
-18
-38
-21
12
13
6
-11
-29
-23
1
-10
-29
28
34
-12
-16
-68
-92
-33
59
99
17
-10
-18
-84
-47
16
-7
-12
29
14
11
11
1
3
-14
12
23
13
6
25
14
-2
88
100
106
92
-34
-107
-134
-77
-17
-1
17
-18
-46
-57
-54
-22
4
11
61
159
131
29
-55
-159
-149
-72
22
73
12
-42
-71
9
51
5
2
7
27
16
17
24
38
107
115
-6
-115
-114
-39
77
66
-8
-7
29
76
51
-15
-47
-52
0
45
32
27
4
-40
-56
-52
-15
2
-46
-88
-69
18
52
17
31
12
34
84
47
-37
-105
-62
87
243
238
52
-193
-273
-150
0
39
1
-6
-83
-135
-78
108
266
119
-124
-89
24
-15
19
24
20
81
81
31
-9
-6
-174
-217
-5
61
15
-19
-23
-9
79
54
-100
-110
109
289
247
72
-142
-153
-93
-67
-22
-46
-59
-85
-72
-1
-1
19
50
42
-5
-56
-31
39
85
107
134
127
124
4
-145
-92
7
8
4
47
32
61
-25
-156
-12
84
117
49
-136
-127
-41
-18
35
64
-57
-119
-62
89
238
222
140
-17
-225
-243
-94
-52
47
167
140
38
41
54
-102
-56
-109
-122
-65
-156
34
29
-82
-69
-77
8
34
79
80
52
102
105
3
-103
-132
19
261
266
143
-130
-253
-102
-118
-32
104
197
96
-134
-124
-19
178
111
43
19
-178
-133
-36
36
151
236
103
-95
-201
-265
-140
-14
96
82
-164
-195
-17
59
85
43
56
125
29
-4
51
73
152
24
-122
-104
-195
-114
39
22
90
278
332
285
20
-372
-350
-259
-83
74
29
177
152
-34
-150
-182
-112
-102
-149
-85
72
225
293
36
-152
27
251
222
-42
-155
-139
183
220
-118
-71
-245
-174
92
81
62
-137
-168
-26
111
105
187
311
310
61
-323
-352
-323
-183
90
101
-73
-17
-43
27
133
64
134
-8
-79
-5
2
-23
60
32
-54
-8
-9
102
105
97
102
95
69
-91
-172
-203
-199
-198
-67
87
60
42
21
70
104
54
-12
-6
51
-15
-34
24
123
204
74
-79
-178
-176
16
34
145
318
49
-228
-321
-245
22
71
77
62
-6
92
59
39
82
111
111
-1
-57
-121
-110
-88
-81
15
59
71
85
90
19
-38
14
157
147
-9
-83
-185
-198
-184
-61
11
-81
-7
-1
24
64
42
37
4
-15
0
44
39
71
154
197
96
-74
-111
-126
-71
35
-186
-191
-136
-190
33
62
119
175
115
47
-137
-115
173
276
234
105
-137
-83
-61
-135
-149
-162
-67
-44
-33
-44
24
243
400
265
-67
-301
-376
-156
64
-5
-12
-6
-43
-7
-49
-39
10
31
48
79
127
202
207
29
-33
-141
-203
-87
22
89
-4
69
50
-38
-92
-13
365
393
239
-57
-384
-294
-185
-155
-49
-4
-97
12
179
116
-9
-71
27
-9
-21
273
491
362
11
-501
-482
-87
-169
120
439
411
233
-356
-149
-101
-523
24
260
242
-10
-474
-580
-507
19
193
304
268
49
144
-85
-7
191
79
101
102
88
79
60
-2
15
90
4
-160
-338
-135
82
9
92
58
-7
-25
20
89
-37
-95
-74
-9
23
5
11
26
42
17
1
-34
-1
14
-15
27
2
-1
22
37
24
-45
-22
112
178
52
112
217
49
-175
-318
-41
202
69
-149
-296
-375
-461
-217
38
279
667
524
-45
-319
-247
-41
63
-77
-201
-113
-66
-87
43
159
273
178
49
378
411
69
-286
-592
-308
-159
-144
88
61
175
129
-24
-60
-63
76
105
43
-36
6
-2
-43
1
-76
-77
9
4
55
127
63
-20
6
95
137
90
8
-29
-92
-167
-45
-49
-7
87
-120
-6
150
10
-105
-185
-118
235
284
173
147
-32
437
259
-492
-612
-426
141
92
56
206
109
203
275
165
-131
-163
-140
-383
-398
-275
-167
90
-93
-2
114
7
129
-42
77
182
67
-64
-57
171
178
91
5
-82
-140
-51
66
65
53
30
17
14
47
64
32
28
54
24
-21
-42
-42
9
37
29
36
54
34
41
47
110
72
-91
-69
-56
-44
-95
-187
-120
44
75
-36
-80
-203
-84
113
41
113
296
215
-99
-156
-82
16
-47
-146
99
244
303
103
-200
-232
-34
-32
-92
42
-168
-122
-16
-177
-122
-96
-41
37
64
53
36
77
143
137
-50
-132
-32
193
375
211
-112
-265
-142
-66
-14
140
104
56
-11
-27
54
61
129
77
26
-43
-294
-267
-3
39
-122
-22
100
32
16
-3
1
49
195
171
47
-10
-53
-125
-139
26
-40
-16
-128
-173
277
242
53
-80
-132
-66
-85
76
105
34
-85
-169
0
256
240
-19
-174
-371
-308
-72
-38
3
103
170
114
68
126
239
297
99
-133
-121
-63
-84
-181
-168
-146
-66
77
21
-29
-7
94
94
83
125
1
59
233
161
-59
-217
-176
-76
-135
-141
-109
-100
61
111
193
245
162
71
30
87
18
-79
-228
-218
-107
58
55
-104
-136
-189
-9
-23
77
416
451
252
-66
-346
-391
-95
14
62
-82
-232
-17
33
61
69
61
46
89
137
62
-124
-198
90
245
529
479
-91
-324
-430
-237
-61
-99
-48
-11
-39
-114
-89
-22
102
93
67
74
26
107
56
-8
26
-6
-35
-28
84
127
54
-27
-85
-38
47
-66
-158
-4
43
134
341
381
123
-300
-532
-331
-42
74
133
-61
-57
9
-67
29
-10
147
398
318
-84
-468
-429
-278
-250
-109
105
249
293
96
175
369
316
256
13
-169
-310
-246
95
119
-74
-256
-217
-51
-92
-54
79
111
127
117
36
-21
-70
-26
81
51
68
56
-67
-176
-247
-70
127
60
54
149
205
47
-127
-89
-33
130
126
-4
-134
-281
-129
-78
-217
-53
178
223
119
-42
-110
19
230
180
-3
-91
-29
67
129
85
-105
-166
-50
42
-72
-208
-237
-161
-11
59
236
203
-109
-142
-31
110
259
343
362
91
-222
-205
-120
37
99
-14
1
-119
-241
-303
-238
-1
78
105
39
-30
-50
-4
135
172
166
46
3
-6
-33
-59
-122
38
89
74
67
28
84
37
27
-4
-16
-64
-184
-52
57
66
178
176
-109
-328
-270
-53
85
-107
-179
-3
144
144
37
3
-97
104
247
83
36
15
119
157
1
-210
-202
-207
-177
61
111
75
-26
-105
-132
-12
47
-47
8
139
336
261
44
-36
-37
11
-98
-188
-187
-123
6
-20
15
24
-80
-29
-8
30
77
54
37
36
52
42
9
-14
17
41
37
24
-22
-61
-12
56
100
61
-52
-85
-137
-149
-64
61
189
98
-21
77
118
-7
16
107
31
-27
-57
-157
-49
185
120
-134
-265
-255
-56
103
-115
-81
5
-32
82
-2
98
144
72
51
-172
-164
9
-39
22
109
40
222
344
108
-256
-409
-127
66
24
66
-19
-38
71
137
207
182
14
-250
-318
-195
-92
-19
7
16
73
16
-24
88
129
168
178
124
70
37
31
9
-27
-83
-46
-42
-82
-3
41
66
39
6
-19
-100
-124
-120
-115
-94
-21
119
324
356
70
-217
-177
-69
-109
49
122
-51
-160
-290
-122
56
-106
-90
-80
-81
89
134
57
8
17
67
165
220
149
29
54
152
53
-104
-183
-240
-168
-94
-34
58
24
102
223
121
15
-109
-150
-41
-59
61
198
155
27
-85
-84
-1
25
-39
13
38
14
-77
-61
74
68
74
-25
-72
-62
-40
22
-41
-17
26
78
87
-61
-178
-117
80
124
41
-85
-215
-155
-101
-74
32
92
144
132
131
66
-76
-64
25
99
74
112
97
-43
-85
-42
71
21
-10
139
173
150
31
-149
-280
-188
100
165
-31
-195
-218
-172
-8
94
97
4
-168
-132
-55
-42
46
106
61
23
-32
11
110
44
36
109
144
122
82
63
7
-84
-102
-34
-92
-135
-48
-20
33
67
15
-24
16
34
-11
-31
-45
-42
-38
2
78
97
97
80
23
-58
8
210
110
-173
-253
-85
67
-140
-247
-6
160
119
29
-33
-60
76
233
143
-36
-112
-209
-228
-130
-45
-44
-73
8
-4
6
218
323
185
-31
-125
-44
27
17
-9
-110
-100
-52
-16
52
-19
25
71
108
87
3
180
338
330
101
-160
-329
-348
-150
-165
-271
-139
27
105
144
154
92
67
171
86
-49
-89
-94
-7
27
60
7
-58
-134
-198
-149
-66
25
12
73
175
200
89
-135
-223
-107
79
165
149
97
81
14
14
64
-57
-102
-92
-116
-71
31
95
40
94
150
167
186
51
-100
-284
-344
-110
66
92
36
-118
-243
-202
-42
15
61
107
107
136
197
139
-26
-42
-25
77
59
-150
-194
-204
-104
54
113
45
-34
140
165
67
-3
-1
106
27
18
-32
-94
-130
-173
-54
-30
76
152
76
100
104
92
111
47
-105
-138
-99
-43
66
4
-112
-152
-139
-52
29
115
123
18
-3
48
101
94
-14
-14
-159
-341
-272
-94
189
171
14
-39
-42
44
42
51
90
130
113
44
8
72
139
-72
-175
-2
74
74
82
-34
-168
-24
137
132
51
-199
-263
-256
-155
42
-68
16
79
50
100
42
33
-3
-4
-19
-34
-11
26
112
164
149
64
-54
-129
-59
-50
-63
98
176
134
-102
-155
76
20
-25
1
-34
-47
-40
-57
-27
-82
-127
-17
21
170
76
78
161
-27
-92
-268
-265
-137
6
139
126
220
121
-110
-108
21
61
77
79
82
161
286
205
6
-46
-197
-102
-258
-439
-54
-81
-119
19
40
89
-31
-51
-9
87
141
51
72
39
91
181
145
7
-112
-147
-170
-23
26
-52
-3
102
110
10
9
-49
3
49
-56
152
263
46
-188
-31
159
86
-112
-299
-298
-207
12
-31
190
335
56
-92
-261
-183
-116
-56
46
37
77
67
71
34
-17
-27
41
240
414
374
68
-420
-461
-142
-149
4
64
33
139
-34
-62
-79
-65
118
149
71
-24
-72
-20
33
-42
-52
-56
2
61
37
137
85
-35
-91
-127
-56
24
63
107
104
57
57
-2
17
62
69
210
122
-142
-329
-330
-143
-44
41
55
-25
-14
97
245
53
-213
-205
-112
135
102
19
141
20
-112
-134
101
335
294
107
-162
-429
-349
-125
-139
178
192
-42
16
-76
-57
35
52
48
33
54
72
62
36
22
8
44
132
127
-45
-105
-77
-87
-6
24
16
-24
-47
-2
-22
9
37
12
-7
-22
140
331
295
188
-212
-418
-81
-120
-159
-188
-203
-28
-66
88
102
4
10
-3
47
36
99
144
79
-19
-61
-21
150
399
261
-92
-278
-373
-133
-89
-224
-18
97
305
235
-30
-83
-60
123
110
-76
-247
-241
-105
-50
21
68
46
46
67
84
54
-26
-47
-74
-20
62
41
68
125
305
283
-4
-150
-330
-218
-19
-59
74
1
-42
-28
-164
-52
9
100
242
175
123
97
-60
-76
-107
-152
-2
7
8
-85
-72
44
10
4
-122
-217
-94
-4
1
93
102
168
276
178
36
-102
-187
-13
104
-9
9
-80
-62
36
27
131
-65
-151
-88
-97
45
92
76
51
29
-49
0
11
-37
109
100
118
39
-110
-112
-206
-102
94
160
89
-52
-106
-154
-37
-24
-75
17
9
32
56
112
181
109
-10
-97
-120
-57
-35
-89
7
74
66
81
-7
-14
62
200
355
288
35
-336
-503
-251
-130
-104
12
17
114
125
-14
-119
-171
-81
66
85
41
53
41
37
42
46
61
67
66
34
46
100
175
157
-57
-143
-72
-137
-155
-41
22
54
-26
-130
-121
-90
-10
-24
-22
60
9
-2
20
28
17
18
55
100
225
242
166
88
-106
-173
-171
-261
-145
-28
32
87
7
-35
-79
-44
-19
-21
67
61
29
9
32
56
30
67
200
186
-22
-122
-154
-58
29
12
42
-53
-100
-34
-56
-85
-75
-100
-34
98
79
14
-7
-6
49
134
173
212
157
-46
-115
-158
-211
-100
-55
-46
-56
-85
-11
22
14
25
54
61
61
177
290
189
29
-84
-269
-195
-77
-150
-58
-27
-29
-1
-9
12
11
57
64
49
5
-23
31
62
71
47
34
31
14
2
9
-14
-42
-32
-24
8
19
14
1
-7
-2
-16
-7
-2
21
37
27
23
21
41
30
-16
-5
-6
-97
-72
-17
-66
-66
-36
9
13
2
-9
-18
18
26
47
54
44
52
25
0
-7
27
109
174
288
335
111
-210
-455
-565
-406
-114
-42
-62
-8
23
57
64
82
75
46
37
39
104
152
130
61
52
21
-81
-31
25
-73
-171
-86
57
85
71
21
-2
-18
-5
18
4
16
-6
6
71
130
88
7
-46
-145
-99
-21
-25
16
29
4
5
16
16
-4
-31
-32
-7
-12
-17
-2
-6
3
-2
-4
42
115
147
225
445
349
-74
-213
-449
-767
-421
-75
-73
29
44
32
4
-31
-1
74
220
195
90
17
-37
-9
-23
-51
-3
85
141
85
36
89
196
266
177
19
-157
-280
-328
-305
-120
-26
-11
40
36
36
22
26
3
65
253
223
94
95
-124
-338
-100
30
-39
-23
-100
-114
-55
17
163
244
347
297
-33
-163
-180
-261
-178
-72
-84
-76
-11
46
39
-19
7
14
5
39
5
28
107
111
84
19
-7
16
-40
-11
117
115
47
-9
-79
-105
-11
95
77
-66
-207
-208
-152
-95
15
32
1
39
20
24
62
52
29
11
35
52
54
71
30
-17
-46
-63
-6
81
110
25
-51
-23
36
122
140
58
-21
-182
-303
-179
-66
-60
-21
1
24
29
1
30
55
44
27
14
38
52
39
14
-1
26
13
-12
26
57
34
-8
2
2
-11
-3
-33
-31
-16
-12
-26
-55
-46
-2
80
116
85
61
25
-7
-41
-60
-59
-62
-88
-119
-90
13
81
81
116
117
100
52
-82
-133
-107
-109
-74
-13
-67
-62
-4
3
40
41
46
37
26
14
8
35
44
51
51
47
22
-16
-41
-23
6
-9
-16
-9
7
21
27
29
11
21
28
-2
-32
-19
7
-2
-21
-33
-12
-4
-26
-21
31
119
153
110
-41
-220
-270
-245
-44
188
154
77
-12
-125
-86
9
36
52
56
4
-37
-71
-52
20
54
110
158
96
26
-25
-76
-57
7
16
-19
-2
3
-30
-17
-1
-28
-29
-8
11
19
26
57
54
64
114
72
-31
-97
-155
-124
-22
11
7
19
41
21
-19
-42
-111
-160
-78
40
33
2
-14
-11
75
89
54
58
144
192
68
-55
-129
-130
-50
24
10
-10
18
9
18
17
6
10
6
-16
-67
-62
-8
36
54
64
24
16
104
52
-58
-89
-186
-220
-122
-44
14
42
61
83
69
68
94
114
120
122
78
29
42
65
16
-41
-100
-211
-159
-89
-139
-67
11
35
33
7
-7
-42
-25
17
16
41
35
-1
47
69
59
37
-10
-24
-15
37
28
-43
-77
-58
-31
-31
31
87
104
125
43
-38
-44
-28
57
62
-42
-51
4
8
-41
-72
-42
-9
6
-23
-56
-50
-31
6
50
103
123
68
-7
-84
-139
-100
-59
-65
-1
41
-4
7
19
22
42
16
7
26
39
39
9
3
10
0
11
19
21
52
84
57
6
-6
-71
-130
-56
-3
-41
-56
6
96
109
99
65
-62
-132
-76
-12
-35
-76
11
139
238
309
99
-156
-198
-299
-289
-72
35
51
34
-2
-16
-32
48
95
62
12
-2
71
68
16
-27
-82
-102
-56
-19
32
90
76
52
38
33
20
20
37
53
51
-17
-89
-117
-76
-32
-4
37
18
-4
12
26
34
15
-35
-66
-47
-4
11
-6
-25
21
127
134
47
-19
-76
-125
-66
38
64
100
87
-28
-133
-195
-129
-21
57
97
72
65
69
31
-68
-92
-64
-29
49
1
-36
33
96
136
47
-62
-17
0
-46
-17
-33
-64
-35
9
46
1
-95
-124
-49
24
57
74
29
14
21
12
11
6
32
34
25
32
13
7
8
41
117
105
-3
-73
-69
-64
-70
-44
2
6
-6
-28
-25
4
-14
-61
-65
1
37
63
64
18
-14
-21
24
62
75
-4
-32
34
-16
-62
-49
-32
1
55
124
83
36
77
-6
-109
-131
-168
-92
-1
-44
-70
-19
87
198
182
83
16
-69
-95
-7
-119
-287
-117
57
94
148
89
-38
-46
1
-32
-24
36
61
66
55
-2
-94
-70
47
83
42
13
-11
-71
-69
-8
-18
-1
40
4
-16
13
24
37
49
32
41
31
4
-9
-25
-11
-3
34
90
70
13
-34
-59
-41
-23
-49
-90
-77
-29
6
31
66
96
82
47
29
6
-76
-106
-64
-80
-102
-75
-7
7
-10
46
62
27
32
95
185
168
33
-57
-117
-115
1
100
80
-156
-190
-72
-122
-34
-19
-60
-19
17
108
108
102
22
-27
26
-1
22
6
22
79
49
-47
-103
-24
27
67
95
131
121
-4
-54
-69
-90
-50
-35
-99
-96
-39
14
39
18
45
50
42
64
91
51
-64
-122
-63
27
27
38
31
1
6
7
77
52
-64
-92
-137
-87
73
79
-3
-49
-110
-97
24
75
75
72
83
4
-36
31
-56
-63
-54
-54
68
123
117
54
30
7
-52
-94
-160
-144
-20
27
3
31
37
36
19
-7
5
4
12
8
1
32
70
68
27
-9
45
118
79
13
-87
-139
-96
-63
2
20
7
-1
21
76
39
-51
-84
-64
-7
101
117
45
-50
-140
-105
-8
33
24
11
-27
-17
14
-26
-39
-27
48
117
74
-4
-61
-107
-61
79
124
92
131
112
-57
-133
-95
-28
117
150
37
-33
-44
-107
-154
-168
-154
-7
132
118
38
16
24
-1
-22
32
70
-17
-145
-86
80
97
96
24
-75
-100
-100
-7
-10
-46
6
76
90
43
47
-3
-44
-59
-74
-42
-17
22
18
29
39
21
22
-4
19
47
40
38
15
-3
6
0
-28
-66
-90
-86
-63
-26
-16
47
90
48
5
-47
-3
66
77
47
-6
-67
-89
-6
29
42
41
15
97
152
90
0
-66
-148
-127
-34
-67
-115
-104
-47
51
176
242
98
-59
-115
-192
-137
11
42
-9
-30
-7
50
90
56
39
1
-30
6
5
-46
-45
29
14
1
14
-6
-16
-31
-4
17
48
79
63
31
26
32
3
-19
16
35
-38
-106
-132
-66
17
-44
-32
-34
-42
71
157
163
19
-80
-129
-74
35
51
66
2
-16
1
-4
-22
20
46
-23
34
42
28
29
-26
-19
-3
-14
-77
-114
-73
57
177
177
133
42
6
55
33
-63
-119
-70
-92
-174
-69
7
-70
-79
-42
-31
9
47
56
55
51
69
51
17
21
29
52
121
128
-19
-131
-144
-89
20
28
-41
-12
63
27
-5
-19
-7
51
31
30
18
-39
-28
-6
-6
-9
22
22
-16
-2
-21
-30
-27
-21
17
35
55
64
57
1
-43
-17
-35
-64
-53
-63
-31
29
38
20
0
15
-25
-62
-28
-31
-32
-6
36
68
100
139
168
153
4
-156
-191
-139
6
99
68
-2
-120
-130
-36
-24
-21
54
7
-27
55
16
10
39
76
74
-32
-39
-9
-51
-35
24
1
21
67
51
19
-5
9
20
-6
-46
-19
-29
-102
-70
2
29
6
-5
19
39
52
47
23
-3
-12
-14
26
45
-6
-15
22
4
-70
-48
-21
32
149
154
122
35
-98
-203
-230
-147
-46
24
92
90
14
-19
-41
-24
-1
-37
-47
-26
-16
14
30
0
-41
-35
33
32
-14
30
119
119
14
-4
16
31
115
127
-1
-118
-49
-31
-51
-8
-11
8
9
38
29
13
25
-29
-66
-71
-42
1
22
62
206
234
46
-115
-205
-235
-197
-107
-11
59
82
71
93
119
93
-19
-114
-92
-39
-7
58
67
-7
-26
-44
-55
-16
12
2
-29
-17
-12
-5
46
29
-42
-74
-17
32
45
