0
27
-17
-46
-74
-83
-84
-114
-149
-149
22
313
358
196
138
102
-14
-46
119
193
65
-84
-187
-72
53
-70
-115
-53
-64
-52
-65
-34
29
19
-36
-92
-108
-76
-36
1
16
29
60
81
140
143
24
15
47
-39
-122
-206
-180
-140
-122
53
168
139
-20
-226
-194
166
282
176
95
-99
-74
-4
63
119
21
-26
-54
-67
-54
-21
-24
-16
60
87
69
26
9
6
-14
-25
-36
-36
-40
-28
-21
-19
-7
-4
2
4
6
9
7
7
7
6
5
7
1
-3
2
4
8
20
21
7
13
46
72
92
21
-112
-77
17
6
-9
-45
-69
58
160
16
-98
-74
-113
-154
-224
-288
-217
47
200
122
107
120
173
117
57
97
103
85
24
12
-25
15
58
45
3
-99
-138
-211
-196
-152
-140
-88
-47
60
206
257
194
165
80
-136
-284
-271
-30
177
128
99
19
-26
2
-17
-12
-52
-84
-111
-83
-65
-62
-22
-9
22
40
70
70
53
51
50
90
105
71
37
-21
-94
-5
128
67
95
77
-51
-48
-78
-67
-65
-80
-75
-82
-55
-21
152
229
70
16
7
-101
-223
-237
-166
9
268
195
82
106
101
114
-46
-173
-236
-206
-91
-87
-64
-94
-117
8
167
193
100
-2
-66
-19
17
17
26
18
29
16
-51
-86
28
170
149
69
94
91
80
72
-54
-110
-147
-193
-197
-162
-29
20
75
147
128
120
194
366
258
-62
-171
-220
-263
-170
-17
152
165
-67
-148
-104
-138
-131
-100
-49
-54
-72
-88
-99
-46
-10
47
80
94
96
92
102
91
15
-166
-169
67
155
102
142
288
287
150
109
57
35
54
6
-150
-277
-294
-290
-233
-190
-122
-60
-27
16
23
36
59
105
123
103
140
118
37
128
114
-112
-167
-144
-141
-49
98
117
86
70
-5
-29
-37
-60
-69
-80
-54
32
55
-55
-183
-138
30
91
115
119
92
86
89
84
19
-22
-22
-21
-2
4
-7
34
79
16
-74
-105
-108
-99
-65
-48
-47
17
79
37
-34
-99
-100
-94
-113
-41
-17
39
162
171
152
200
218
196
137
43
7
-29
-79
-179
-203
-173
-309
-579
-639
-321
-28
287
503
477
507
433
266
11
-184
-115
-115
-85
-1
-27
-17
-121
-191
-125
-31
70
71
91
74
81
140
196
133
-84
-138
-103
-51
72
133
102
6
-172
-251
-216
-210
-158
-138
-122
-106
-115
-61
57
145
162
168
132
104
82
65
53
41
62
42
-19
-102
-196
-161
87
271
281
236
170
0
-153
-86
-16
26
41
4
-19
-76
-76
-67
-88
-120
-151
-130
-94
-47
-17
-7
-28
-8
104
183
183
114
51
-10
-24
-12
-62
-79
-72
-49
-18
11
22
-40
-110
-141
-133
-168
-111
202
283
226
290
182
159
91
-166
-187
-4
1
-159
-186
-143
-87
-43
-72
-54
-15
-1
11
7
-6
1
34
65
74
82
80
64
56
49
56
55
46
35
37
56
52
32
-22
-91
-79
-27
-21
-17
60
102
51
-1
-79
-120
-136
-149
-111
-112
-142
-113
23
142
113
81
64
41
42
2
-81
-161
-65
127
217
148
1
-11
3
6
30
57
45
-7
114
313
236
-46
-172
-312
-365
-195
-136
-70
95
44
-104
-115
-27
65
-46
-193
-212
-148
-120
-84
39
79
86
85
94
98
94
133
133
95
52
50
63
67
64
54
111
155
52
17
166
102
-64
-156
-226
-55
82
29
-8
-30
-60
-126
-164
-111
-79
-86
-107
-129
-41
97
152
109
49
59
23
133
365
355
275
171
20
-125
-205
-210
-224
-230
-269
-277
-238
-179
-122
-37
114
175
84
32
41
9
-10
-11
11
1
9
28
9
30
96
99
-2
14
176
253
116
11
64
48
-17
44
94
-62
-168
-174
-324
-238
179
208
-76
-113
-46
-43
-45
-67
-120
-126
-130
-109
-33
-11
19
57
99
104
90
96
80
79
71
75
70
51
45
31
22
22
19
-1
3
7
-19
-100
-131
2
75
16
-110
-120
75
222
387
422
258
141
48
-63
-118
-102
-130
-166
-339
-407
-241
-172
-98
-116
-166
-210
-85
168
91
15
-36
-140
-87
-99
-22
157
147
146
135
102
112
125
209
147
-2
-46
-34
65
113
72
41
1
-26
-45
-39
-47
-75
-93
-84
-56
-36
1
12
19
27
27
18
-1
12
29
27
9
-19
-29
-22
-14
-17
-15
-4
-8
-21
-27
-67
-51
59
-117
-360
-33
390
475
450
208
-44
128
373
188
-91
-220
-357
-412
-342
-210
-134
-143
-148
-130
-127
-124
-110
-89
-75
-64
-27
47
119
74
57
118
124
120
95
90
85
62
64
56
57
42
41
44
35
36
31
31
21
17
23
20
6
-9
-11
-12
-15
-16
-17
-17
-22
-39
-32
-6
7
1
-6
-9
-16
-21
-12
-2
7
18
17
4
-15
-19
-20
-29
-14
-4
-14
-12
-28
-27
-12
-23
12
31
-8
-36
-25
17
-36
-154
-143
-5
80
198
245
211
198
-5
-107
-97
-75
-36
-46
14
78
59
-22
-36
-81
-79
3
-21
-75
-243
-227
153
275
118
132
135
46
23
-46
-149
-215
-207
-157
-181
-148
-53
12
46
80
105
62
56
65
57
67
55
49
30
16
22
22
11
23
62
47
26
17
12
15
-65
-215
-200
-48
-53
-121
-117
-2
128
274
511
512
276
103
16
-86
-198
-227
-216
-241
-221
-166
-125
-92
-61
-16
5
9
9
11
7
9
21
18
29
31
23
23
29
39
36
32
19
-4
-11
-2
0
6
9
1
1
1
-3
-9
-13
-21
-41
-90
-171
-178
-96
13
294
406
221
230
128
-24
-19
-32
6
-80
-221
-266
-246
-200
-135
-49
1
39
59
69
84
75
41
19
31
-16
-41
198
365
211
128
105
78
127
155
89
-58
-154
-221
-268
-287
-266
-214
-187
-162
-137
-102
-125
-129
42
78
-269
-386
46
313
280
340
367
321
288
285
229
79
-82
-162
-139
-113
-90
-85
-92
-105
-69
-9
-30
-64
-70
-25
22
-9
-27
62
186
252
172
4
-72
-95
-118
-122
-113
-107
-135
-169
-137
-60
-25
-6
-24
-106
-147
27
101
28
383
504
112
-148
-535
-562
-14
473
859
499
-158
-82
85
205
227
47
-67
-194
-226
-254
-291
-275
-262
-231
-190
-111
-19
31
28
24
6
-105
-244
-79
254
737
1124
698
351
241
38
75
-102
-298
-420
-571
-639
-648
-565
-486
-334
-193
-94
-21
29
113
149
163
174
178
193
217
205
164
152
135
112
103
166
302
300
83
-33
-77
-36
468
610
217
-14
-236
-365
-418
-409
-291
-256
-335
-356
-303
-304
-157
47
77
49
140
172
150
221
179
141
159
198
236
224
273
306
166
27
-33
-135
-149
-142
-116
-57
-123
-257
-6
323
215
141
-21
-268
7
345
105
-312
-496
-425
-365
-274
-215
-258
-171
-137
-87
-25
6
42
55
73
124
273
319
246
234
132
-33
-74
-14
266
421
157
-122
32
307
246
359
451
113
-170
-172
-152
-258
-335
-311
-266
-254
-266
-290
-289
-280
-220
-31
36
-35
85
412
686
709
546
268
107
298
281
-191
-400
-491
-589
-549
-532
-413
-328
-211
-114
-57
6
65
150
183
223
230
224
210
193
186
161
117
61
19
9
19
21
25
27
32
35
12
3
-1
-12
-27
-49
-42
-22
-22
-45
-53
-74
-118
-110
-27
42
43
37
22
54
95
105
99
40
11
8
-37
-123
-107
98
84
-99
-46
160
196
-22
-22
-89
-262
-258
-302
-270
-254
-206
-138
-92
-48
-32
26
52
92
112
118
95
80
138
149
116
88
58
37
39
60
74
66
50
32
16
10
-6
-42
-75
-75
-65
-55
-1
55
42
4
-79
-198
-221
-98
188
484
529
341
223
175
123
52
-91
-203
-274
-272
-267
-241
-200
-173
-146
-142
-47
79
75
14
27
102
178
41
-100
97
286
238
153
54
46
83
-50
-164
-228
-279
-277
-237
-175
-118
-80
-62
-40
-25
13
41
44
51
51
52
55
39
33
53
64
74
62
23
134
281
265
196
102
70
40
7
-9
-87
-112
-140
-129
-99
-72
-48
-46
-1
2
-24
-66
-67
-11
33
80
78
85
51
2
1
-123
-214
-202
-132
12
109
141
94
47
34
197
349
266
118
-118
-153
-81
120
468
273
-94
-180
-227
-291
-391
-311
-54
25
-230
-430
-386
-342
-254
2
356
410
279
252
132
17
-19
-34
-48
-38
-38
-76
-69
-31
5
13
21
12
2
-51
-92
11
109
102
52
42
102
195
276
311
345
200
-99
-153
-124
-133
-128
-150
-159
-198
-203
-186
-188
-152
-77
-17
33
94
148
242
403
462
198
4
22
-67
-86
-73
-58
-52
-136
-217
-229
-187
-181
-110
-36
31
68
33
21
126
257
32
-144
-52
-148
-104
52
150
375
530
446
215
129
54
-112
-203
-228
-190
-201
-305
-326
-248
-208
-153
-143
-203
-316
-420
-461
-539
-251
406
768
1050
1645
1826
1319
653
-137
-496
-534
-603
-617
-813
-837
-865
-967
-587
89
92
-137
14
51
-72
35
370
373
220
111
129
67
-22
-7
-143
-186
-163
-74
-6
45
132
158
195
168
101
40
65
130
53
-103
-105
34
84
87
229
325
288
198
89
74
-14
-104
-139
-185
-158
-148
-157
-137
-111
-133
-147
-110
-93
-109
-117
34
252
191
126
185
171
307
466
417
246
31
-236
-401
-409
-365
-335
-339
-270
-233
-294
-239
-198
-208
243
592
350
94
200
374
308
455
535
398
125
-173
-281
-377
-383
-443
-390
-305
-285
-269
-294
-177
-117
-55
12
68
118
233
431
290
125
167
97
-94
-228
-26
177
295
511
602
371
93
69
-54
-249
-301
-268
-352
-478
-388
-171
-7
152
284
265
238
198
159
80
-116
-224
-253
-261
-266
-256
-153
-74
-102
-148
-211
-206
-39
116
221
360
466
489
536
631
347
-96
-215
-307
-364
-389
-383
-273
-218
-176
-116
-86
-92
-31
41
52
99
254
362
287
196
155
92
-13
-23
-11
-60
-55
-60
-70
-80
-79
-56
-37
-12
-31
-45
-39
-69
-137
-183
-115
42
56
-16
114
251
309
360
301
191
233
152
-51
-115
-219
-171
-199
-260
-218
-238
-248
-258
-191
-155
-91
-42
-11
20
34
80
104
175
198
283
297
87
-40
-96
-74
-27
-29
-23
-47
-48
-62
-49
-21
-27
-4
-8
-16
-22
-78
-136
-109
-79
-111
-99
-42
148
397
479
298
69
212
459
365
216
126
62
65
-134
-249
-319
-418
-423
-500
-496
-508
-435
-269
-136
16
224
417
453
437
328
-40
-324
-11
246
376
352
83
23
-133
-130
-89
-126
-147
-184
-155
-162
-80
19
70
-10
-58
-1
52
55
32
74
59
107
123
65
23
-32
3
32
16
14
21
17
0
-32
-139
-377
-561
-290
156
122
133
509
682
709
602
392
204
0
-140
-311
-425
-437
-424
-374
-304
-208
-157
-130
-95
-117
-301
-847
-888
239
981
999
976
801
640
460
437
391
87
-418
-749
-791
-844
-725
-544
-393
-278
-142
-58
-13
29
-62
-92
-57
42
130
143
291
545
651
599
555
458
387
269
-129
-246
-132
-256
-286
-300
-298
-277
-292
-259
-294
-282
-326
-360
-205
-89
-117
5
383
584
526
568
600
509
397
261
105
-70
-184
-311
-350
-277
-231
-153
-98
-44
-57
-167
-433
-895
-897
32
802
776
753
662
577
670
622
336
-117
-462
-668
-676
-635
-540
-406
-274
-133
-83
-29
-62
-51
-47
-137
-244
-187
70
183
388
564
537
554
448
258
98
-55
-138
-165
-218
-247
-249
-236
-189
-166
-132
-109
-74
13
23
-36
-42
-9
34
70
72
76
60
57
70
54
41
50
57
62
76
70
48
34
21
3
24
40
21
4
9
-31
-163
-162
-17
57
105
137
155
141
109
72
-5
-72
-107
-121
-127
-111
-127
-113
-62
-75
-64
-41
-21
2
5
19
19
-1
-17
32
122
95
-32
-120
-328
-572
-400
75
358
396
324
224
162
132
118
67
-28
-118
-148
-145
-124
-100
-82
-54
-16
14
1
15
36
43
33
-46
-69
-14
-27
-31
1
41
59
31
34
22
69
97
42
36
1
-1
18
16
27
11
-2
-27
-26
-27
-22
-13
-23
-17
-27
-15
-27
-19
7
-2
8
1
-15
2
24
14
-5
-4
-7
-4
5
11
27
16
4
-2
-27
-36
-18
-9
0
16
28
56
47
16
6
-4
11
13
-30
-47
-26
16
47
16
-19
-2
-13
-57
-21
23
36
36
1
-7
-3
-5
-3
7
11
2
2
-2
-6
-4
-12
-75
-187
-102
304
495
339
128
-84
-135
-175
-197
-145
-128
-128
-158
-133
-89
-75
-51
-45
3
109
112
183
307
278
191
51
-23
-74
-119
-110
-142
-181
-196
-167
-124
-96
-90
-85
-89
-67
12
94
163
201
182
141
123
73
37
61
41
-11
-15
-4
4
6
16
49
22
-82
-191
-211
-68
39
52
134
232
249
153
74
34
16
-2
-33
-32
-56
-79
-113
-120
-110
-105
-67
-64
-70
-134
-322
-415
77
682
665
507
367
205
89
-74
-188
-256
-327
-397
-405
-387
-344
-299
-284
-257
-213
-66
196
308
215
152
122
118
106
57
31
-17
-13
22
-22
-25
239
562
560
344
98
-74
-193
-236
-222
-276
-303
-254
-203
-221
-91
337
589
359
92
-41
-89
-132
-191
80
316
270
223
-2
-218
-374
-547
-469
-277
-268
-348
-163
226
579
513
165
42
-12
228
408
128
-50
-180
-148
-97
-164
-168
-150
-95
-100
-43
-22
7
31
35
62
22
41
74
105
106
109
118
117
122
93
82
45
13
-17
-25
26
82
100
101
96
45
15
8
-5
-29
-49
-61
-62
-37
-51
-55
-46
-56
-64
-66
-47
-23
-31
-31
-14
-27
-36
-29
-14
0
-2
-8
-13
-16
-24
-10
7
25
26
-11
-12
-17
-27
0
-2
-1
16
3
4
16
16
-11
-29
-16
-6
26
43
19
10
-4
-14
-40
-71
-38
-17
-31
-31
-18
-5
4
-15
-46
-44
-35
-123
-165
82
281
241
147
-27
-47
62
54
56
18
-34
-79
-130
-137
-87
-19
-6
11
8
-1
12
7
13
24
21
-8
-6
30
55
55
48
42
7
1
11
20
28
-6
-24
32
62
-146
-225
90
150
-75
-75
-33
1
16
-105
-155
-60
40
58
205
141
-93
6
-76
-21
472
399
57
-21
-216
-220
-121
-115
-54
-180
-415
-479
-378
-257
-76
60
98
64
26
142
195
208
201
150
170
190
192
42
-17
30
1
68
22
-52
-84
-145
-102
-92
-91
-66
-54
-11
6
-49
-94
-60
11
85
83
69
115
137
168
222
294
308
80
-115
-132
-85
163
193
-12
-31
-56
-136
-185
-158
-136
-130
-24
18
-77
-82
70
195
147
22
-19
-65
-47
-25
-48
-34
-47
-140
-106
12
-80
-133
102
250
-66
-284
-279
-221
-169
-296
-233
-113
69
327
314
210
67
-13
-36
-166
-138
-24
48
57
37
63
66
12
-113
-67
112
191
216
301
424
291
97
39
-46
-89
-125
-113
-44
-42
-112
-112
-66
-60
-46
-41
-12
19
18
6
-14
-5
29
84
65
6
-11
-137
-181
-34
77
111
11
-16
-14
-33
40
4
-51
-58
-38
-63
-85
-60
-49
-5
48
84
60
57
84
198
318
133
-115
-198
-181
143
500
554
375
-34
-311
-389
-398
-383
-494
-538
-223
36
36
95
43
-1
95
69
46
206
223
52
-43
-152
-151
-113
-97
-155
-310
-207
208
607
452
239
154
44
148
80
36
-73
-56
80
7
37
-5
-17
-42
-97
-83
-54
4
3
0
0
46
2
-79
-113
-195
-67
222
165
24
49
3
107
173
39
-130
-127
-80
-156
-155
-120
-135
-281
-361
-216
110
234
176
329
14
-206
330
536
366
146
33
123
-15
-140
-160
-302
-421
-474
-239
61
-64
-166
-67
-30
6
-6
59
147
156
212
176
105
50
-6
1
-22
-33
-5
-4
-1
11
11
-4
-12
-4
9
17
19
18
15
20
35
67
59
8
-2
2
-15
-39
-54
-42
2
55
72
59
50
21
-81
-102
-24
37
24
17
139
26
-70
-17
-185
-160
-95
-79
32
147
200
187
154
-103
-133
-115
-80
170
120
52
113
-77
-440
-523
-292
-101
-181
-220
-65
-60
4
86
102
154
135
128
96
91
94
79
81
102
126
110
94
77
130
118
30
3
-4
-6
-41
-59
-98
-129
-57
36
65
59
32
60
106
-14
-50
-40
-148
-156
-19
82
100
121
59
-11
-70
-117
-133
-120
-42
-2
31
-23
-99
-12
87
94
55
0
6
76
100
80
189
403
248
-152
-261
-292
-308
-269
-244
-190
-210
-191
-89
6
62
95
78
26
57
287
474
136
-91
83
100
143
97
-61
-143
-115
-28
-28
2
-27
-39
-12
-13
-20
-45
9
44
25
5
-1
26
29
-26
-116
-162
-41
122
137
28
-26
46
-9
-21
49
14
41
36
25
3
-41
-70
-86
-26
-21
-93
-37
83
-88
-212
45
302
188
65
70
-32
-31
-32
-82
-158
-218
-45
232
157
-69
-75
-84
9
54
-12
-42
-69
-53
-104
-150
-113
-55
-11
31
60
67
77
81
79
70
70
57
51
49
41
32
22
24
21
11
1
-2
-10
-10
-8
-11
-13
-7
10
16
19
27
27
13
-7
-26
-31
-22
-17
-38
-65
-52
-24
19
104
132
-80
-188
100
273
226
-49
-301
-201
-59
145
137
-49
-102
-148
-170
-155
-104
-33
32
79
16
-84
-59
-41
1
98
185
213
158
88
32
42
-17
-49
-115
-201
-137
-74
-64
-71
-9
19
62
70
49
59
41
55
31
24
24
17
-5
-91
-123
-23
42
30
14
-29
72
128
40
7
-49
-65
-32
1
31
19
17
25
42
43
14
10
30
56
54
28
32
41
49
136
243
255
236
45
-147
-144
-213
-255
-288
-284
-201
-113
-132
-220
-150
-72
-8
42
60
79
70
78
65
67
64
54
35
13
47
52
-1
-7
57
92
91
68
31
27
33
32
-26
-65
-51
-27
15
-48
-93
-24
1
38
64
67
64
2
-55
0
103
41
-32
-2
-11
-64
-111
-92
44
120
10
-26
-69
-148
-152
-143
-84
-64
-44
-30
-14
9
17
42
54
72
69
67
55
47
64
64
43
24
24
15
6
4
5
-3
-16
-16
-21
-17
-12
-11
1
12
12
12
14
22
-2
-47
-18
7
3
12
2
1
-4
-6
-26
-61
-55
-24
11
34
52
54
-32
-99
47
151
97
47
-15
-15
41
57
-12
-67
39
60
-117
-98
135
110
-109
-123
-112
-97
-80
-123
-42
-72
-87
-43
-24
11
-29
-43
-36
19
96
181
259
194
76
89
195
105
-162
-218
-71
-53
-216
-312
-211
-80
-24
13
23
50
100
138
145
102
65
51
44
43
55
46
29
29
9
1
-2
-1
12
18
1
-17
-13
-36
-42
-8
2
2
31
32
0
-24
-23
-14
-10
-24
-58
-83
-77
25
33
-39
21
-10
-54
72
241
227
62
-31
-100
-102
-79
-81
-94
-115
-106
-109
-81
-45
-10
16
21
48
72
66
41
29
19
11
18
19
21
17
14
18
21
24
19
-2
-19
-9
14
14
-9
-17
6
42
19
-32
-23
2
27
27
49
90
62
21
-33
-72
-78
-79
-94
-111
-59
-6
-34
-137
-159
36
102
107
171
113
100
39
-5
-17
-46
-60
-84
-46
-37
-19
-7
4
19
23
60
151
132
-20
79
142
4
-71
-43
24
-115
-169
5
73
14
66
170
31
-144
-133
-104
-163
-209
-200
-185
-143
-87
-27
15
60
127
147
98
26
40
79
91
104
84
86
87
71
46
-32
-79
-6
54
77
80
21
2
-10
-12
-32
-59
-57
-60
-36
-37
-29
-14
-12
-1
3
4
7
12
6
4
6
8
21
27
-21
-44
22
51
34
7
-34
-65
-36
117
198
52
-46
-65
-201
-210
-96
-44
-13
-18
21
28
-12
-17
-25
-4
19
34
23
1
-4
-10
1
-2
-7
-2
26
60
48
7
11
26
21
25
24
23
19
19
17
10
-2
-6
-8
-14
-1
2
-7
-8
-4
2
-3
-7
-2
1
-4
-39
-96
-85
-31
-54
-77
-9
94
173
143
49
64
77
-5
22
61
-4
-59
-140
-140
37
176
173
90
-16
-46
-70
-137
-157
-120
-97
-82
-26
-16
-19
-24
-58
-49
-27
9
36
55
82
79
64
47
29
19
7
4
-6
-39
-49
-49
-21
49
67
65
66
53
34
4
22
36
11
21
87
76
-74
-57
32
-28
-53
-1
110
203
156
-149
-429
-363
-216
-138
-99
-74
4
-69
-133
104
306
459
446
228
131
1
-42
-5
-46
-70
11
-31
-243
-275
-286
-268
-122
34
135
135
94
54
44
22
29
6
-73
-80
-88
-65
-12
10
28
31
24
24
117
131
21
-52
-12
112
99
69
14
-87
-80
-87
-80
-90
-110
3
216
248
57
-55
-79
-21
94
64
26
39
-112
-215
-176
-146
-126
-139
-98
-62
-44
-12
8
46
70
100
110
92
31
-2
102
205
158
71
240
438
311
112
0
-116
-200
-126
41
85
-206
-299
47
91
59
150
155
267
73
-154
-170
-392
-511
-440
-298
-291
-298
-154
-42
124
273
264
104
32
11
-11
14
-52
-90
-89
-71
-36
-9
14
44
59
79
110
112
121
115
105
84
72
77
57
47
47
50
49
40
34
31
24
6
-10
-10
-9
-12
-18
-22
-29
-37
-35
-24
-15
-14
-4
3
4
-12
-41
-39
-32
-40
-41
-26
-17
-15
-12
-19
-19
-12
-6
-1
-7
-4
7
14
19
6
-6
-8
-14
3
6
4
4
-4
-1
7
12
-1
7
21
4
-6
-14
-6
6
3
9
6
-3
-1
-4
-9
-7
0
4
-13
-14
15
43
32
-62
-171
-135
22
176
238
152
137
155
30
-64
-142
-170
-134
-127
-97
-73
-56
-39
-55
-40
70
178
155
69
17
-35
-82
-64
-35
-39
-65
-137
-157
-110
-69
-38
-6
42
72
86
82
62
42
54
109
107
83
79
62
54
54
50
27
-7
-65
-130
-179
-122
159
318
206
112
155
379
406
162
-193
-505
-379
-183
-96
-21
1
76
-44
-195
-231
-397
-513
-453
-251
7
153
167
147
150
140
78
52
48
29
65
59
52
68
58
70
63
34
19
30
34
33
30
22
6
1
27
41
58
69
51
14
-11
-14
-1
19
31
77
104
168
309
263
75
-97
-319
-362
-226
-125
-163
-288
-309
-153
150
277
181
99
39
-27
-45
-22
-8
-66
-136
-105
-139
-113
-5
85
206
175
22
-92
-98
-29
-6
24
30
32
44
14
4
0
5
15
28
53
108
191
162
147
148
81
81
-56
-131
12
-10
-129
-70
70
65
-157
-372
-306
-188
-106
-10
5
31
38
-1
-32
-55
-58
-60
-49
-40
-32
9
46
64
95
91
64
81
114
142
151
127
118
118
52
16
36
13
-26
-50
-53
-57
-65
-84
-90
-49
-16
11
19
5
3
1
4
-4
-11
-9
-23
-58
-47
93
155
87
76
84
178
163
-181
-365
-105
59
2
4
-70
-160
-150
53
229
46
-97
-46
-17
-19
-95
-83
-122
-220
-194
-142
-102
-109
-54
12
52
81
97
132
141
128
97
88
85
83
78
69
55
40
35
54
107
87
28
-10
-40
-48
-52
-52
-59
-42
-4
-26
-64
-66
-52
-31
-16
-5
-19
-50
-25
28
46
59
52
59
89
22
-29
4
-19
-34
2
-13
-111
-208
-122
211
429
415
229
2
-86
-157
-141
-121
-136
-171
-210
-217
-216
-107
44
82
-32
-50
-12
22
85
74
73
81
70
51
183
287
157
1
-152
-132
152
368
122
-187
-266
-372
-249
-123
-89
-13
-40
-26
17
11
19
21
9
7
-7
-16
6
31
55
67
70
71
52
24
22
21
33
68
99
124
82
41
6
-42
-75
-102
-104
-105
-82
-72
-69
-42
-7
17
7
6
16
10
3
-5
-16
-14
-12
-24
-36
-49
-69
-87
-97
-76
-9
85
176
239
264
225
225
203
105
57
-46
-127
-153
-176
-143
-132
-116
-52
75
173
57
-117
-109
-73
-54
-17
2
14
-13
-24
-29
-35
-22
-24
-37
-26
12
32
52
64
82
23
20
117
113
89
39
-51
-69
-63
-55
-70
-127
-138
-120
-94
-72
-54
-25
-6
21
27
27
39
57
58
19
-24
-29
-25
9
186
286
205
160
95
-9
-74
-82
-85
-131
-130
-104
-88
-68
-42
-7
22
38
35
22
16
13
6
7
-1
2
35
61
88
80
-37
-123
-75
158
173
-208
-112
177
152
99
128
174
103
17
-200
-303
-188
-109
-183
-280
-239
-212
-127
-45
7
23
-29
-48
-9
52
74
117
127
133
137
122
106
75
88
98
79
50
87
96
27
6
-19
-97
-180
-111
83
120
82
62
32
28
9
-7
-47
-68
-72
-66
-46
-43
-29
-21
-16
-11
-13
-16
-12
-7
-1
-4
-15
-7
-2
1
5
2
2
4
0
-1
7
5
1
-2
-10
-7
-2
6
-4
-59
-122
-49
147
188
200
292
198
16
-158
-216
-152
-99
-87
-67
2
-55
-136
-123
-89
-100
-147
-130
-51
10
42
120
221
296
499
572
229
-12
-59
-110
-188
-336
-316
-254
-253
-223
-182
-113
-66
-8
27
54
77
86
102
105
107
99
88
81
81
67
49
37
30
33
24
19
17
13
6
0
-6
-11
-17
-17
-1
-4
-11
-10
-12
-18
-19
-16
-18
-17
-16
-16
-12
-13
-20
-20
-17
-16
-14
-10
-14
-15
-5
3
5
-4
-2
2
2
1
-2
1
2
-2
-4
-9
-7
0
-1
-3
1
5
2
-7
-15
-16
-12
-5
3
5
4
1
3
5
3
4
1
7
8
-2
-3
-2
0
-1
1
-6
-11
-9
-14
-16
-10
2
4
20
21
1
0
-4
21
95
21
-124
-59
-7
-6
-7
-59
99
287
236
97
8
-17
-4
-4
-44
-92
-128
-114
-97
-93
-97
-34
49
-36
22
105
55
64
51
42
-26
13
-23
-112
-56
-84
-143
-141
57
181
72
-27
-80
-51
-34
-39
-31
-1
60
102
94
27
-25
-58
-74
-82
-31
36
4
-29
-1
42
89
118
42
-67
-46
2
-21
-2
72
39
31
115
113
102
116
94
0
-101
-211
-127
75
51
24
-4
-57
-84
-34
145
148
-120
-226
-127
-105
-21
65
63
-50
-133
-131
-94
-8
-51
-62
-1
22
1
-15
-2
-10
36
74
115
125
68
41
3
-16
13
42
47
29
-14
-11
40
61
50
24
31
29
26
25
-2
-15
-14
-6
-11
-26
-32
-24
-21
-18
-3
8
-16
-57
-59
-54
6
176
296
175
-15
21
93
75
-117
-400
-357
-236
-218
-79
122
204
148
130
137
117
162
215
145
-17
-160
-241
-254
-153
-89
-104
-117
-113
-84
-115
-101
-51
-9
35
47
55
42
41
68
95
98
99
97
76
66
48
44
47
30
15
4
6
2
10
26
16
2
-6
3
4
-5
-18
-27
-29
-22
-12
-9
0
2
1
4
-5
-21
-16
-14
-19
-17
-24
-24
-14
-6
-5
-2
0
-5
-5
-1
-2
-19
-40
-45
-34
-4
26
30
19
5
4
2
-27
-69
-94
-34
147
275
238
211
196
148
177
99
-109
-180
-201
-208
-150
-178
-308
-349
-292
-220
-133
-58
5
46
89
112
104
94
84
80
74
82
92
74
67
101
47
-59
75
295
289
239
258
136
-40
-105
-175
-251
-329
-269
-80
-47
-79
-127
-161
-80
72
117
75
104
79
31
-16
-16
9
8
21
-3
-27
-42
-27
-15
-2
13
16
29
24
23
20
18
22
17
18
16
11
4
2
1
2
-3
-4
-4
-9
-1
-7
-13
-10
-9
-6
-7
-10
-16
-16
-12
-7
-6
-6
-8
-12
-14
-24
-23
-18
-20
-22
-28
-31
-36
-36
-36
-34
-19
-17
-22
-19
1
32
54
67
79
88
95
92
57
39
29
22
100
190
118
14
1
-48
-55
-107
-126
89
317
332
31
-186
-174
-167
-141
-152
-178
-210
-217
-195
-153
-89
-52
-16
21
94
178
229
301
223
-19
-87
-98
-85
-60
-90
-74
-124
-123
-117
-133
-96
-85
-16
114
183
105
34
42
98
158
200
261
211
97
49
33
10
-32
-82
-111
-87
-17
27
48
95
34
-105
-110
-42
-2
-7
-47
-40
-9
-51
-142
-116
20
162
123
-69
2
57
-143
-218
-137
21
112
75
28
-13
-26
-55
-64
-61
-79
-65
-47
-24
1
25
42
52
64
65
65
61
52
46
39
27
-5
-74
-153
-135
18
123
115
101
93
94
104
102
65
16
-2
7
36
14
-10
-17
-124
-218
-145
-4
136
110
-107
-213
-72
114
122
45
-14
-24
11
71
83
-44
-74
41
67
10
-14
-4
-32
-180
-285
-279
-243
-151
-91
-14
74
137
127
60
49
4
34
128
73
-7
-42
-55
-7
22
7
-14
-37
-7
33
71
103
99
90
89
99
90
68
36
6
-16
-44
-51
-43
-22
5
6
-37
-79
-74
-74
4
92
117
188
183
64
-117
-208
-133
-42
-1
-23
-47
9
154
159
21
-23
-25
-39
-60
-45
-85
-164
-109
-42
111
238
135
-44
-89
6
-42
-78
-59
-74
-64
-23
24
-77
-148
-89
-70
-62
-17
119
175
127
108
20
5
5
-74
-143
-161
-142
-99
65
175
173
194
158
91
32
-6
-17
-88
-102
-60
-64
-74
-79
-55
-51
-61
2
88
105
90
69
70
74
63
54
26
13
8
-2
-12
-27
-34
-22
-4
3
-2
-24
-51
-74
-21
109
199
114
-19
-24
-52
-38
99
211
48
-236
-319
-238
-155
-121
-17
18
-4
-26
-21
-8
-23
4
-3
7
4
-29
-51
16
196
187
138
161
77
65
54
-21
-67
-82
-17
14
-19
-95
-100
12
-4
-94
-127
-38
131
155
86
17
-29
-45
-47
-44
-57
-43
-25
-24
-15
4
20
22
26
19
7
4
1
-9
-7
147
349
274
147
56
-160
-268
-171
0
19
-44
-79
-48
8
-36
-85
-87
-8
27
14
-78
-166
-114
-125
-59
-12
-29
-16
-23
-17
-32
0
18
34
54
64
75
70
84
85
87
75
73
67
56
49
34
30
27
21
7
3
0
-9
-13
-14
-7
-11
-12
-12
-19
-31
-34
-29
-16
6
9
-18
-44
-45
-33
-60
-87
-32
49
70
92
99
35
16
21
-4
-59
-112
-74
-24
-29
-35
-34
-26
-20
-22
-19
-16
-11
-4
4
6
6
13
18
17
22
31
36
28
8
-26
-74
-74
31
135
109
84
75
46
66
103
132
-26
-177
-157
-128
-9
105
95
-6
-161
-206
-86
-36
-2
-16
-62
-1
-31
-47
-57
-58
-29
-16
21
16
-51
-137
-89
11
96
227
325
327
230
150
41
-53
-85
-70
-44
-40
-15
-80
-97
-61
-65
-64
-82
-64
-39
-36
-25
-3
-5
-14
11
29
40
47
49
39
1
-11
15
22
11
7
4
4
9
14
-12
-45
33
135
53
-62
-75
-57
-10
20
39
78
133
80
-12
-33
-160
-336
-304
-93
54
131
149
155
158
135
92
65
109
70
52
81
120
52
-77
-74
-168
-269
-253
-84
67
17
-2
-41
-52
-41
-33
-12
-72
-95
-113
-84
-41
-35
-1
26
39
37
49
50
48
51
52
59
48
41
31
26
20
18
12
6
6
-4
6
16
16
16
21
22
3
-1
-7
-10
-6
-18
-25
-24
-11
-9
-18
-22
-26
-26
-24
-23
-30
-35
-37
-42
-44
-44
-33
-12
1
4
13
17
24
40
51
57
70
89
86
66
57
62
67
26
-32
-35
12
52
65
45
-9
-19
33
6
-63
-24
112
259
203
23
-101
-224
-256
-254
-405
-414
-92
82
59
14
-27
85
244
236
-64
-195
-54
39
127
-10
-203
-95
79
162
201
205
144
123
106
-25
-126
-248
-332
-154
85
75
36
-12
-150
-102
-31
-17
3
2
26
36
42
47
53
41
22
15
26
54
33
8
-9
-117
-217
-132
-23
55
186
186
142
146
86
82
21
-65
25
25
73
88
-27
-64
-115
76
286
171
-45
-173
-145
-71
-54
-32
-150
-213
-110
-104
-91
-67
29
26
-125
-231
-286
-165
-32
54
135
127
107
143
173
169
141
110
100
84
72
33
-11
-42
-44
25
40
27
19
-5
-12
-22
-19
-27
-41
-39
-33
-30
-30
-25
-19
-16
-19
-24
-20
-11
-4
-11
-16
-7
1
16
11
-4
-11
-18
-6
8
7
6
-1
2
9
10
14
7
-4
3
26
42
41
-3
-24
-27
-42
-31
-47
-51
-20
-5
3
0
6
21
33
16
-32
-10
105
45
-95
-18
32
-29
-36
25
63
49
62
136
198
80
-49
-26
-27
-120
-120
-2
6
-40
-69
-69
-94
-123
-126
-127
-122
-245
-193
70
265
429
314
65
25
29
86
65
-84
-127
-83
-54
-59
-42
-8
9
4
32
120
93
-46
-51
-8
-49
-72
-12
60
92
176
165
67
-11
-105
-82
-20
-70
-103
-94
-119
-154
-169
-90
-25
-32
22
99
130
120
113
95
66
54
33
8
-19
-28
-34
-47
-30
-23
-37
-32
7
36
34
32
22
15
13
14
-42
-99
8
98
52
2
-12
6
1
-4
-7
-41
-41
-26
-22
-31
-41
-30
-21
-6
23
-1
-159
-203
84
282
208
87
21
34
26
72
38
-120
-112
-41
-59
-148
-170
-95
-17
43
100
133
83
46
20
-26
-26
4
17
2
-20
-27
-24
-27
-21
-6
-1
0
-18
-41
-12
89
145
72
22
83
2
-140
16
181
104
6
-12
24
70
2
-92
-157
-200
-170
-198
-155
-63
-39
-47
52
311
349
55
-97
8
72
9
-176
-244
-178
-102
-34
-59
-79
-87
-61
-1
89
164
180
168
147
120
51
26
16
52
109
88
47
-12
-38
-9
-1
-51
-79
-71
-103
-155
-154
-47
44
74
57
51
108
145
117
-14
-37
69
29
-50
-54
-39
-27
-49
-67
-74
-68
-48
-31
-19
-11
4
2
2
1
3
8
2
22
26
47
130
209
157
-127
-215
-14
59
65
13
-11
17
-22
-67
-100
-130
-143
-111
-87
-57
-28
-19
-1
24
52
74
84
79
76
74
71
58
41
55
64
30
27
97
71
-174
-318
-108
112
174
161
28
-81
-40
68
69
-33
-87
-95
-96
-94
-94
-99
-84
-59
-32
-32
-31
13
65
85
81
58
-16
-1
121
219
175
84
97
47
-80
-72
11
-75
-125
-6
-33
-89
46
104
-38
-84
-34
-110
-168
-212
-244
-140
-38
27
45
16
-8
-58
-37
14
60
101
90
69
27
41
58
49
58
48
49
37
54
175
256
106
-9
-51
-107
-34
-19
-29
-51
-56
45
14
-101
-11
112
82
37
-22
-78
-47
64
143
84
-70
-108
24
51
-61
-63
-47
-92
-126
-165
-150
-89
-42
-19
16
17
16
49
73
91
77
53
41
56
109
142
63
-34
-41
-60
-74
-104
-132
44
307
243
-27
-70
-68
-109
-102
-70
-60
-145
-206
-176
77
273
158
87
66
53
105
40
-124
-129
48
3
-221
-215
-89
-6
41
24
34
60
-34
-85
-25
19
-4
-60
-64
-41
2
89
194
224
226
224
122
-41
-184
-184
-18
55
81
174
101
-133
-291
-185
-113
-146
-115
-120
-90
-75
-46
-22
-22
30
41
0
-36
64
156
162
180
186
170
97
50
-2
4
55
80
103
80
68
39
12
9
47
-22
-178
-215
-314
-308
-137
-11
129
162
73
2
24
74
110
81
-25
-89
-171
-213
-183
-156
-232
-337
-70
360
531
577
445
145
-139
-243
-141
-94
-83
-95
-249
-375
-308
-98
132
137
52
53
6
8
49
77
103
110
116
90
44
-1
-30
-27
-36
-49
-32
-24
-11
12
14
-1
2
57
92
61
22
25
76
97
51
18
107
234
145
-84
-152
-96
2
59
-43
-160
-153
-76
-70
-92
-94
-147
-171
-126
-49
105
195
84
-19
-21
90
81
-85
-145
-174
-66
32
52
52
-92
-69
51
137
230
65
-65
92
80
14
8
-17
70
92
150
134
-17
-114
-143
-128
-115
-67
-63
-53
-4
-29
-54
147
178
-17
34
46
86
116
-29
-148
-200
-181
-119
135
292
158
-5
-111
-162
-136
-40
12
-32
-90
-97
-8
143
194
182
80
-37
-27
-78
-95
-76
-23
110
165
53
-79
-108
-230
-257
-22
59
7
82
150
234
281
246
155
-51
-176
-201
-158
-51
-37
-103
-166
-210
-153
-21
43
106
140
16
6
67
138
203
113
105
87
12
-108
-127
-26
-73
-119
-148
-124
23
75
-28
6
139
121
32
4
-49
-128
-97
-76
-55
48
125
65
-25
94
104
-122
-193
-107
-6
-54
-104
-18
31
145
245
306
216
55
-6
27
85
-137
-31
60
-87
-67
-155
-59
-15
-208
-451
-361
-51
11
39
98
174
168
95
31
4
43
32
-38
-26
198
345
311
261
113
-36
-110
-157
-163
-148
-119
-126
-149
-120
43
374
506
209
-168
-374
-339
-243
-268
-229
-173
-169
-180
-110
63
171
223
312
386
311
198
54
-65
-6
13
22
-20
-104
-87
-132
-140
-34
69
18
-112
-142
-163
-112
-31
35
112
28
-89
-58
-16
99
189
158
150
128
160
148
55
-18
-102
-64
8
-36
-27
64
73
53
36
-63
-183
-215
-165
-52
124
110
-7
6
-47
-162
-82
57
-32
-66
118
370
340
129
121
-36
-185
-202
-244
-267
-277
-223
-229
-105
85
173
178
162
120
-38
-193
-203
-98
15
103
12
-34
-17
-44
-73
6
171
176
208
148
80
78
9
-12
4
20
-46
-40
-26
-25
10
-19
44
191
203
52
-47
-50
-70
-165
-194
-79
-19
-27
-95
-145
-61
-1
60
82
64
91
171
190
96
184
261
183
87
-55
-82
-76
-60
-105
-323
-181
217
306
220
45
-157
-276
-306
-274
-315
-372
-273
-48
22
-63
-88
1
74
41
96
125
90
113
128
160
135
100
46
29
49
-1
48
79
24
46
102
168
173
-12
-184
-135
-104
-44
16
4
107
125
47
35
-51
-135
-49
122
232
67
-130
-105
-63
-102
-157
-157
-77
-19
-168
-299
-246
-194
-173
-71
16
18
138
226
276
229
158
180
118
51
-11
27
17
-59
-57
-31
17
38
19
-61
-24
31
-10
-26
-31
19
70
29
-17
-103
-256
-258
-148
13
149
217
191
59
-42
-109
-92
-15
142
181
123
165
132
79
-10
-47
-75
-108
-34
-80
-198
-281
-173
41
172
149
63
84
62
26
-55
-108
-106
-143
-126
-77
-29
34
163
357
330
-28
-105
78
105
-20
-202
-249
-165
2
-61
-186
-143
-93
2
42
-20
-59
63
201
324
312
148
147
101
-38
-105
-138
-88
-107
-190
-168
-173
-102
77
93
32
25
119
166
-37
-157
-104
-52
51
85
-8
-62
67
125
64
89
19
-95
-176
-123
62
154
155
69
34
31
-2
-31
-14
92
-49
-258
-136
-41
-64
-24
41
218
296
135
19
36
7
-100
-114
-89
-96
-42
34
87
38
-70
-185
-327
-345
-266
-54
186
205
189
166
150
147
163
226
276
318
82
-195
-348
-379
-128
75
117
-87
-235
-273
-285
-145
-116
-65
-47
-65
-58
-118
-67
110
195
224
226
143
122
113
99
70
63
127
91
13
17
52
83
58
44
120
231
242
-39
-249
-102
-91
-194
-210
-237
-131
19
29
-2
27
-2
-55
-69
-52
-58
-95
-55
9
28
1
5
74
178
178
31
-20
-32
-93
-116
-37
42
26
79
136
92
136
247
-21
-220
-117
-188
-72
43
27
54
-74
-143
-160
-179
-120
-30
8
10
88
188
294
263
32
-155
-115
-28
-97
-95
-95
-113
26
54
-28
10
53
59
61
46
-21
-46
47
96
88
98
99
10
36
190
16
-70
9
-13
57
24
-39
-103
-96
-67
-108
-75
-38
29
84
31
-55
-63
-92
-250
-277
-7
155
135
142
136
155
107
70
24
-31
-24
-43
-41
11
-33
-192
-216
-266
-260
-4
113
41
94
203
208
145
149
243
142
-6
-100
-127
-75
-152
-157
-100
-84
-62
4
69
106
32
-122
-70
-14
93
231
85
-131
-169
-95
-66
-117
-40
44
-49
4
175
148
-16
-71
-99
-37
127
150
132
115
46
7
-7
-13
-48
-110
-100
-89
-110
-117
-82
-23
34
158
195
95
29
84
100
-7
54
44
-81
-52
77
135
70
43
-14
-67
-100
-117
-50
1
-90
-187
-102
-42
33
231
328
275
93
-157
-249
-227
-183
-17
89
-23
-167
-180
-105
-5
59
105
135
109
77
142
173
47
36
-9
-72
-31
-76
-131
-142
-78
-15
17
-42
-43
-7
-111
-80
-41
-90
-54
65
193
175
115
140
118
-109
-297
-231
-208
-142
77
159
125
128
219
245
132
81
42
34
107
23
-106
-143
-222
-300
-263
-120
-31
87
176
29
-78
-47
120
227
196
214
110
67
-15
-212
-229
-125
-12
-49
-70
-49
-43
8
-7
7
-8
18
120
112
90
77
30
-4
-16
-27
-31
93
215
102
60
31
-76
-90
-84
-26
-95
-117
-69
-102
-173
-182
125
328
229
-2
-121
-90
-145
-118
-129
-146
-122
-160
-81
59
107
114
121
118
107
89
75
16
-38
-33
-27
-67
-72
-19
-1
13
53
131
140
60
11
-37
-118
-154
-33
69
23
-5
78
221
202
146
198
119
100
210
9
-293
-342
-348
-428
-377
-253
-177
-9
127
216
223
80
-42
-52
-2
9
13
30
-4
-76
-41
57
138
190
112
55
56
-1
-72
-69
-76
-59
36
47
90
114
97
166
180
128
61
-89
-74
72
11
-63
-55
-76
-173
-248
-304
-388
-312
-131
101
375
377
186
160
94
22
-41
-142
-135
-124
-90
-84
-77
-57
-54
-4
110
163
163
266
215
5
-90
-145
-181
-138
-87
-82
-77
-41
-16
-10
-27
-95
-58
110
175
165
140
114
125
118
79
28
44
100
114
-4
-132
-6
145
180
152
55
12
8
-35
-180
-442
-637
-548
-297
-106
87
186
171
210
249
234
47
-44
-75
-133
2
43
1
-38
-49
-69
-80
-26
-8
25
68
122
102
60
33
-11
10
24
12
-37
-32
20
-18
-11
95
180
113
11
38
16
101
334
170
-60
-73
27
163
43
-135
-288
-335
-331
-329
-220
-195
-150
-15
-6
17
151
72
-54
-85
-19
186
350
382
243
119
14
-95
-114
-31
7
-99
21
133
-120
-309
-241
-256
-251
-2
70
76
106
36
53
58
57
21
22
54
46
59
60
59
35
44
51
49
54
36
28
22
41
45
72
107
62
-23
-113
-211
-234
-90
100
106
55
142
180
45
-113
-158
-115
-93
-90
-4
60
110
136
24
-92
-157
-112
-90
-186
-180
-123
-105
-80
11
132
200
191
81
21
26
15
-9
-22
67
128
113
79
77
60
-107
-101
-4
-73
-80
-43
-31
-64
-54
37
103
32
-85
-110
-70
-3
36
84
50
-24
-137
-159
200
398
223
157
102
137
211
-16
-181
-98
-147
-259
-69
2
-51
-80
-147
-162
-213
-169
-164
-117
-51
-18
20
38
127
52
34
185
374
416
124
-66
-142
-223
-184
-155
-126
-107
-77
-41
9
66
81
128
138
125
120
100
62
-29
-118
-84
12
26
69
69
-9
50
249
274
114
38
-11
36
-94
-343
-258
-211
-193
-148
-140
-85
-39
74
117
145
113
17
125
350
279
-12
-95
-247
-448
-206
205
256
142
16
-131
-140
-77
-75
-28
84
74
62
33
-22
-47
-112
-123
-114
-113
-69
-27
-10
11
41
69
94
105
98
82
75
55
34
47
90
120
127
74
-16
-24
-37
-96
-125
-139
-106
-62
69
190
152
-11
-114
-47
-88
-111
-152
-216
-224
-212
-52
-11
-78
-1
89
165
215
125
-54
-21
365
455
238
118
-1
-34
0
137
211
-51
-246
-238
-343
-369
-219
-123
2
99
97
156
56
-75
-11
16
69
70
38
215
274
128
99
40
-99
-166
-254
-334
-316
-239
-211
-165
-73
-1
50
69
81
100
137
149
145
95
65
144
224
256
175
68
-8
-23
56
27
16
26
-115
-217
-180
-82
-17
-87
-69
127
27
-178
-61
87
76
-9
-71
-133
-131
-80
-55
-30
-59
-65
-32
13
45
49
72
79
105
89
29
17
14
11
9
13
4
-7
-7
-22
-37
-39
-39
-26
-16
-24
-19
-11
-12
-4
-16
-31
-7
17
31
28
28
52
70
70
82
65
19
12
20
27
47
46
58
94
69
26
-1
-27
-36
-57
-67
-67
-69
-55
-48
-65
-73
-37
-11
-19
-22
-10
11
-1
-19
-18
-27
-21
-14
1
24
27
44
99
175
211
187
12
-160
-100
-93
-118
-99
-215
-234
-179
-211
-65
190
243
266
170
92
147
-31
-137
-47
77
-67
-324
-364
-384
-173
32
59
-40
-122
122
274
246
166
136
243
220
101
16
-53
-8
71
89
90
-49
-187
-96
40
5
-16
-26
-120
-85
-43
-29
-49
-87
-61
1
125
132
-2
-62
23
80
42
-2
25
40
70
136
57
-59
-110
-78
-57
-33
17
9
12
19
-3
-43
-39
-43
-56
-37
-27
-11
-9
21
52
36
-9
-32
9
42
34
24
34
17
-7
-26
-43
-16
51
153
210
170
4
-158
-131
-137
-138
12
11
-133
-157
-53
118
39
-110
40
129
118
37
-89
-84
-137
-200
-168
-105
-36
-20
-13
15
74
106
94
113
119
120
113
101
94
133
148
2
-64
-33
-55
-62
-108
-107
-39
-26
-23
-21
-19
-1
16
36
37
38
53
54
74
55
94
186
12
-165
-201
-186
-30
66
49
-115
-245
-67
190
342
203
-100
-125
-143
-229
-182
-100
-16
118
146
18
-4
-57
-95
-47
-32
-7
-19
-44
-75
1
128
152
113
106
234
289
193
19
-127
-34
131
79
-62
-128
-193
-196
-160
-198
-218
-156
-90
-34
34
-15
-147
-168
21
264
495
588
184
-101
-41
-49
-31
-116
-130
-92
-78
-51
-78
-56
-75
-58
-26
-1
27
26
48
66
104
102
101
108
46
-7
9
33
17
1
26
72
-31
-64
36
-5
-34
-135
-261
-224
-54
138
45
-135
-120
-49
-11
92
128
35
17
37
24
-23
1
42
40
81
41
-70
-64
74
72
-76
-53
54
97
82
64
39
-77
-90
-64
-79
-69
-87
-64
36
44
-14
32
40
37
41
26
33
-3
-6
12
21
16
1
-15
-18
19
31
14
33
74
51
-25
-31
16
-3
-27
-64
-97
-37
16
57
-19
-223
-208
-55
-4
85
150
154
125
62
87
39
-2
41
-42
-77
3
60
33
-95
-145
-93
-54
-165
-143
115
93
16
-19
-65
-58
-119
-138
-128
-79
-42
17
74
74
97
94
87
63
49
49
46
40
8
46
151
171
225
340
228
83
-22
-157
-152
-337
-433
-14
232
158
79
-5
-57
-181
-187
-167
-188
42
120
51
-20
76
250
51
-41
-61
-246
-475
-468
-209
-157
-162
-77
-2
85
217
162
128
243
233
220
171
183
203
127
19
-32
6
1
22
55
73
19
-31
-45
-79
-92
-97
-73
-51
-19
-10
-4
4
17
29
16
9
-2
3
3
-4
-8
-8
-55
-65
69
104
55
52
17
-6
-32
-47
-46
-46
-17
0
30
56
-8
-22
74
77
7
-56
-100
-57
127
302
100
-259
-341
-236
-185
-279
-186
65
65
12
29
-29
-68
-82
-22
113
51
-85
25
152
102
27
34
176
207
110
121
201
243
122
81
110
-5
-159
-165
102
123
-182
-291
-301
-259
-150
-90
-89
-15
122
52
-132
-200
-213
-101
13
32
85
76
34
-62
-51
103
197
264
243
156
130
178
188
-14
-107
81
89
-44
-19
90
119
124
75
-82
-227
-238
-149
-157
-130
-122
-227
-250
-142
-15
100
220
190
153
198
242
130
-35
-96
-174
-135
-59
-102
-249
-216
56
275
127
-164
-224
-31
357
421
180
-24
-80
-90
46
301
181
-113
-263
-256
-140
-149
-223
-268
-299
-211
-105
4
75
100
200
226
137
105
93
-9
-120
-113
50
190
217
122
28
65
51
17
-21
-34
8
45
32
-36
-21
-19
-34
-31
-36
-31
-57
-58
-44
-19
3
25
41
27
10
-14
-16
1
29
41
25
9
27
43
13
-5
-18
-15
-16
-74
-105
-49
35
120
171
113
49
7
-37
-52
-4
7
-100
-93
-6
-55
-253
-251
-122
-65
127
173
87
117
203
251
108
-34
-89
-203
-261
-271
-231
-211
-199
-35
120
264
446
442
152
-69
-23
-46
-122
-170
-197
-244
-82
271
340
359
199
115
144
-42
-68
-96
-100
-122
-170
-165
-160
-211
-350
-390
-364
-66
201
102
119
224
154
60
119
140
147
279
365
332
220
118
88
42
-79
-90
-42
-73
-145
-208
-229
-239
-196
-139
-52
90
125
7
-148
-192
-97
74
279
258
-14
-119
-135
-129
-64
-32
-11
-82
-113
-118
-102
-23
7
16
39
74
74
83
101
108
97
69
55
42
57
74
73
32
-22
-17
75
112
22
-56
-185
-193
-73
-13
97
104
97
57
-1
125
143
143
132
54
-56
-187
-205
-158
-122
-188
-178
-109
-137
-119
-52
-24
-39
-49
-9
72
142
99
-3
-10
62
109
36
61
198
176
-42
-233
-95
84
-13
59
267
89
-75
15
36
-27
-7
-24
-162
-226
-288
-184
-19
21
57
11
8
29
69
175
158
85
89
98
101
107
113
49
-3
12
-24
-41
-64
-104
-211
-284
-191
-128
-70
1
77
107
107
191
324
411
171
-42
-72
-122
-92
-158
-170
-155
-205
-213
-213
-167
-60
131
173
123
114
47
69
131
42
-74
-38
-109
-205
-62
76
139
142
165
307
254
4
-101
-173
-166
-62
-88
-78
-22
-32
-116
-130
-67
-54
-34
-16
-14
5
32
38
32
45
54
55
62
64
54
45
57
57
38
21
19
21
16
10
-5
-11
-28
-47
-41
-15
4
18
19
-4
-10
-8
-17
-16
-6
-9
-16
-11
-11
-7
-1
-3
-8
-7
-6
-12
-9
-1
0
2
-4
-9
-11
-11
-9
-15
-36
-57
25
207
274
59
-21
33
-110
-163
-256
-236
-59
17
67
7
-28
16
68
42
-22
-5
-12
-21
31
89
34
-36
-36
-73
1
205
258
169
90
39
-34
-46
1
-40
-36
-133
-399
-436
-137
47
45
132
215
226
102
44
9
-95
-154
-105
118
138
33
-4
-20
43
9
-66
-148
-132
26
80
-36
-206
-93
49
19
206
244
75
27
4
53
80
175
169
17
-27
-100
-123
-96
-71
-39
-50
-64
-51
-19
-11
-38
-102
-92
92
227
153
142
198
34
-89
-97
-174
-151
-122
-204
-304
-275
-160
90
276
165
145
264
313
234
104
-76
-157
-166
-239
-203
-148
-171
-186
-168
-134
-49
3
5
37
64
90
100
122
127
121
142
142
132
112
90
74
69
65
62
60
52
42
7
-20
-30
-27
-35
-52
-21
-9
28
123
69
-14
26
-66
-62
143
171
91
-156
-402
-297
-150
-185
-297
-259
-115
-56
-19
-26
-19
9
33
31
-13
53
140
156
195
161
89
69
41
62
56
-1
-22
-45
-43
-34
-31
-14
-1
9
6
-12
-13
9
4
-27
14
120
124
52
26
-5
-47
-120
-120
3
19
-18
-39
-77
-46
57
120
104
169
229
146
11
-11
-59
-171
-111
-62
-112
-109
-90
-31
35
7
-66
-184
-233
-140
-74
-35
1
7
14
62
117
130
152
113
52
41
34
26
-22
-47
-100
-130
-115
-54
188
248
170
196
106
19
-9
2
54
82
44
-71
-144
-175
-155
-109
-74
-29
-24
-35
-41
-51
-64
-14
66
20
-49
-7
37
46
49
36
18
-6
-54
-75
-1
70
135
216
160
88
65
49
97
16
-139
-255
-264
-105
-32
-8
-7
-57
-60
-29
7
10
-21
-39
-27
-19
2
30
52
75
67
59
53
29
14
9
6
-8
-1
71
56
-11
1
16
20
16
-2
-51
-74
-23
16
14
1
-21
-120
-171
-21
-51
-170
90
220
90
78
99
241
435
393
190
-6
-145
-229
-292
-301
-287
-221
-100
-65
-124
-117
-1
49
-36
-62
-48
-44
-18
-40
-23
-1
2
5
29
104
123
119
104
101
100
76
58
17
-5
6
26
16
-1
5
-1
-14
-27
-19
-9
-17
-68
-122
-54
24
-39
-29
78
104
152
153
72
65
247
253
-20
-115
-176
-229
-217
-176
-125
-128
-124
-133
-107
-63
-21
3
22
45
45
62
65
74
82
69
67
63
51
36
19
0
-4
4
-6
-62
-222
-410
-148
493
619
257
89
42
27
64
117
205
39
-253
-324
-326
-306
-223
-181
-138
-113
-91
-49
-15
21
28
40
85
130
144
176
159
60
59
150
109
1
54
63
-1
-95
-163
-17
-32
-21
64
-115
-157
-95
-64
-12
12
42
31
21
26
32
43
36
26
18
-9
-41
-40
30
86
64
44
1
-8
62
49
-37
-138
-162
-51
29
30
25
49
45
-26
9
72
-42
-52
0
-52
-137
-208
41
258
147
6
-120
-243
-162
133
224
153
42
-65
0
109
99
-36
-64
-64
-65
-51
-65
-57
-70
-56
-51
-37
-33
-31
-24
-21
-32
-90
-20
134
151
92
47
45
55
50
43
-21
-35
34
58
62
48
14
6
-12
-20
-19
-2
48
46
6
-17
-44
-62
-29
15
20
7
-17
-22
2
2
-3
-20
-29
-21
-16
-57
-104
12
109
115
127
-10
-62
35
6
-36
36
36
-21
-84
-137
-117
-98
-54
-32
-29
-2
74
152
98
-20
-92
-97
-89
-65
-29
-40
-97
-11
195
254
195
109
87
104
-37
-170
-160
-149
-152
-160
-129
-109
-110
-24
59
60
11
-54
-46
122
356
344
150
47
-6
-28
-33
-47
-79
-101
-107
-99
-74
-46
4
16
32
46
37
52
67
44
9
100
229
226
113
-64
-135
-41
26
30
13
-36
-45
-55
-72
-62
-49
-59
-52
4
59
90
68
92
39
-133
-178
-210
-143
-59
-38
19
-31
-132
-238
-203
7
210
261
225
199
173
165
19
-220
-177
125
184
72
16
-102
-163
-100
1
16
50
77
-35
-72
-11
-57
-178
-48
208
163
64
13
-134
-229
-205
-115
-111
-110
-92
-80
-33
-8
39
75
97
114
119
124
139
193
215
230
198
42
-66
-113
-130
-130
-136
-142
-148
-107
-72
-41
-11
44
82
71
87
109
129
93
55
86
52
1
122
165
-24
-118
-117
-173
-248
-241
-138
-69
-20
-9
-4
11
-7
-24
-25
46
90
89
79
50
48
2
-92
-148
-72
11
99
170
110
145
165
143
138
64
-10
-10
149
221
60
-146
-251
-287
-338
-266
-87
70
9
-127
-60
30
89
84
67
44
-32
-55
-54
-42
-21
10
-1
-39
-40
-32
-26
-40
-35
-32
-60
-44
67
238
343
453
461
114
-70
-102
-176
-179
-207
-163
-172
-198
-214
-188
-126
-57
67
132
164
138
90
72
103
97
22
-32
-67
-20
-9
-46
-44
-34
-29
-12
25
46
44
14
-18
-25
-36
-66
-54
-3
57
128
129
11
-47
85
217
240
97
-55
-95
-137
-142
-197
-177
-83
-10
40
9
19
13
-19
-21
-27
-18
-61
-170
-167
-8
141
244
329
337
210
193
176
-82
-203
-172
-175
-163
-143
-186
-208
-171
-168
-123
-64
11
89
116
123
153
135
126
118
-44
-92
-44
-171
-222
-2
114
64
110
105
125
289
342
170
-39
-62
11
-63
-113
-133
-202
-202
-238
-224
-176
-133
-39
13
19
7
6
-2
2
51
160
229
232
220
155
44
-20
11
106
132
56
-32
-99
-137
-173
-161
-147
-133
-120
-97
-36
-6
4
9
28
31
37
27
-33
43
157
152
168
142
72
-16
-49
53
24
-97
-130
-150
-142
-85
-82
-61
-20
7
37
18
40
35
30
52
46
52
34
24
16
7
-2
4
30
29
1
-70
-35
57
79
101
94
98
64
17
-25
-112
-184
-151
-4
82
28
-52
83
147
92
118
29
-31
-128
-199
-155
-221
-274
-278
-206
-92
-3
122
128
123
132
80
65
51
44
14
-3
-11
-16
15
52
51
41
84
82
55
54
49
54
40
1
-36
-54
-44
-13
-8
-25
-45
-54
-17
16
19
11
9
6
4
17
38
54
20
-62
-75
-37
11
123
85
-58
-72
-52
-22
-11
-26
-72
-75
79
80
-36
-19
6
-70
-172
-135
45
158
137
133
87
15
-12
16
34
39
10
-231
-383
-220
-129
-92
281
444
278
317
395
291
-37
-260
-309
-333
-256
-210
-243
-298
-292
-239
-156
-88
-21
79
124
158
167
137
71
36
33
26
72
190
206
-102
-299
-48
145
189
233
198
166
131
124
65
-26
-70
-91
-53
-25
-11
-2
8
25
12
10
20
-1
-21
-42
-59
-48
-39
24
58
-12
-55
-101
-90
-62
-85
-65
-46
-24
-9
45
73
39
24
2
15
13
-3
-2
-11
-26
-41
-119
-323
-446
-82
288
153
277
360
210
213
153
190
89
-95
-191
-210
-170
-145
-105
-81
-55
-69
-40
-43
-59
-60
-69
-15
1
-17
-40
-4
60
91
113
99
90
81
72
68
70
55
27
17
-12
-24
-35
-70
-99
-75
-16
1
-27
-106
-122
41
84
-44
-40
56
77
4
-17
-37
-64
-53
-44
46
197
196
21
-14
165
218
156
99
-12
-64
-148
-175
-138
-175
-206
-227
-241
-215
-121
-31
29
67
84
115
148
180
170
113
-4
-183
-162
99
204
173
125
74
183
166
-25
-68
-75
-135
-163
-141
-113
-92
-70
-41
2
8
-9
9
22
24
44
39
21
16
27
37
24
15
18
17
12
-1
-47
-125
-126
-13
120
223
137
-75
-113
-49
-4
67
118
140
66
-125
-258
-255
-95
49
60
61
121
198
141
-12
-112
-188
-195
-19
64
44
64
40
126
158
139
173
79
-15
-41
-57
-87
-148
-193
-210
-185
-157
-122
-60
9
49
19
-7
12
34
21
-45
-115
-1
178
228
186
66
71
179
355
332
51
14
-6
-57
-69
-140
-208
-267
-264
-272
-246
-207
-167
-156
-195
-145
-5
96
138
187
215
201
109
73
94
89
57
44
68
2
-35
-60
-66
-64
-79
-15
9
41
66
75
89
67
77
71
3
-17
56
34
-75
-197
-292
-192
-69
-40
82
236
337
439
653
594
36
-301
-321
-312
-284
-274
-217
-184
-195
-167
-106
-61
-68
-85
-60
-22
6
64
146
185
138
157
258
208
133
98
122
178
22
-132
-185
-259
-286
-279
-219
-151
-123
-90
-57
-38
-3
37
50
72
80
95
100
57
23
4
4
32
15
-6
76
138
143
150
128
101
92
76
31
-31
-94
-135
-210
-297
-326
-172
91
238
335
339
260
180
123
75
-31
-118
-115
30
14
-147
-191
-213
-164
-104
-68
-39
-44
-90
-153
-160
-153
-115
-24
50
19
9
88
127
152
154
155
133
77
44
-34
-83
-60
-3
143
198
47
-16
22
-41
-54
24
9
-79
-133
-186
-213
-186
-135
-79
-50
-37
-1
33
42
72
105
95
81
105
116
88
48
-7
-52
-57
-52
-64
-51
34
107
154
195
153
84
17
-11
24
62
64
29
-33
-113
-144
-117
-43
31
75
65
-12
-112
-236
-341
-196
163
352
275
175
116
77
84
41
-27
-108
-185
-176
-143
-32
47
-57
-122
-172
-108
182
279
48
-218
-234
-165
-140
-71
-22
-80
-115
-72
-113
-162
-124
-47
65
132
127
36
-85
47
256
269
235
180
127
113
111
95
44
-9
-39
-62
-78
-75
-53
-50
-53
-8
10
26
45
68
127
125
70
47
66
62
24
11
35
24
-22
-48
-57
-51
-54
-96
-172
-75
80
6
69
184
80
14
-66
-126
-147
-203
-229
-221
-198
-164
-99
-107
-84
32
97
116
169
212
177
140
97
78
94
55
-9
-24
-34
-137
-281
-230
79
177
150
214
106
-28
-82
-133
-82
68
70
76
192
191
133
30
-33
-60
-101
-164
-163
-123
-151
-126
-123
-113
-75
-9
22
-14
-4
-2
14
29
32
31
-4
-77
-227
-302
-113
130
224
273
244
203
224
253
234
119
-2
-105
-129
-100
-150
-278
-360
-261
7
307
402
359
228
80
-24
-64
-49
-118
-113
-117
-110
-78
-119
-160
-79
170
127
17
120
53
-7
-16
-9
-9
-57
-64
-79
-100
-148
-185
-178
-143
-90
-42
-9
23
13
-80
-138
-101
1
69
44
-125
-390
-222
282
544
655
583
423
347
291
242
116
8
-64
-49
59
63
-79
-226
-158
-180
-278
-228
-288
-281
-284
-283
-192
-162
-137
-139
-99
-36
0
16
33
37
36
64
105
158
188
160
130
157
83
-171
-291
-38
189
241
388
329
137
109
115
61
-5
-29
-90
-342
-630
-332
124
175
189
111
65
69
25
67
26
-94
-167
-183
-168
-95
1
38
54
76
94
75
9
-69
-128
-160
-100
-74
-232
-280
12
155
109
192
220
230
234
241
181
87
59
-22
-2
80
17
-121
-248
-287
-130
-75
-144
-70
27
51
50
97
43
-55
-89
-122
-107
-99
-85
-52
-155
-314
-153
231
576
693
370
133
31
-90
-128
-166
-160
-186
-203
-234
-243
-220
-153
-90
-13
92
95
95
69
35
-4
7
52
49
68
58
54
72
82
79
74
64
44
26
-7
7
33
22
13
-1
-8
3
-1
-39
-101
-112
-75
-45
26
84
106
93
88
109
72
47
19
-22
-46
-57
-14
-26
-95
-83
-47
-16
13
39
60
-3
-127
-263
-312
-187
48
232
319
291
226
263
252
175
74
-57
-119
-149
-184
-195
-177
-183
-274
-314
-119
46
77
128
107
77
35
14
21
-1
6
-33
-57
-23
-13
-15
20
38
25
43
43
42
61
36
-14
-29
-36
-32
-6
16
26
18
-16
-42
-25
-7
-37
-64
-52
-31
-2
43
71
101
92
38
29
12
-17
-26
-7
38
55
54
46
48
42
-14
-99
-272
-460
-309
-35
47
143
178
107
-27
85
384
385
281
150
89
83
7
-69
-128
-95
-108
-180
-160
-55
7
-19
-40
-20
71
116
-59
-231
-255
-263
-204
-123
-31
8
-42
-59
-19
108
150
109
78
59
83
79
52
22
3
-11
-12
-10
-21
-2
19
17
-19
-53
-64
-44
-4
20
53
105
119
93
43
-1
-4
-9
-10
-24
-39
-29
-20
-37
-57
-24
0
-1
-19
-55
-43
1
24
31
32
62
78
65
52
24
19
37
52
51
39
-8
-49
-47
-14
42
53
38
-1
-21
-12
-31
-67
-82
-84
-98
-60
-2
25
43
24
26
70
78
47
18
-39
-146
-251
-259
-130
-64
-39
-4
22
91
138
152
145
141
97
72
60
1
-29
-61
-78
-97
-93
-44
-24
0
22
6
-15
-22
-7
18
41
35
-32
-99
-113
-60
-24
-22
-14
34
123
145
146
118
70
44
9
-13
-36
-45
-44
-41
-59
-62
-51
-42
-33
-49
-72
-73
-71
-110
-95
35
175
238
224
137
45
17
-2
-26
-53
-65
-54
-42
-65
-91
-70
-41
-24
-34
-39
5
33
29
29
29
24
4
-12
1
30
57
46
-2
-21
25
55
41
18
16
-3
-45
-31
-6
42
84
59
40
-23
-60
-35
-37
-29
-36
-36
-22
-20
-2
-4
-29
-41
-47
-49
-19
-12
14
45
45
82
62
24
31
31
16
-30
-52
-76
-110
-82
-16
41
26
-7
10
-6
-12
8
-7
-4
11
30
27
11
21
25
4
2
-4
-46
-27
6
15
11
-2
-2
-2
13
16
4
-1
-1
24
28
9
-11
-36
-32
-14
-16
2
39
46
32
7
-2
0
-52
-99
-62
5
17
-11
7
55
22
-139
-334
-189
143
129
145
287
220
127
133
145
102
78
11
-61
-99
-118
-79
-49
-39
-112
-158
-65
-15
-23
-44
-83
-75
-69
-39
79
110
46
28
-3
-33
-48
-26
1
-30
-75
-123
-100
-83
-59
-9
-7
2
6
30
32
6
-27
-74
-44
44
111
142
155
165
149
127
81
-4
-34
-11
-1
-20
-64
-62
14
69
51
32
14
-14
-32
-26
-16
-37
-12
-9
-46
-63
-72
-24
17
25
25
-1
-18
-24
-51
-60
32
51
-44
-22
39
41
77
138
129
85
22
-85
-164
-147
40
216
173
52
-56
-190
-258
-205
-116
-101
-92
-34
-47
-69
-57
-25
60
120
118
92
74
45
29
29
34
42
41
43
36
11
-17
-16
-14
-34
-38
-37
-36
-15
6
13
31
72
92
93
79
17
-27
-19
-21
-16
-6
-36
-59
-47
-31
-10
13
3
-32
-39
-22
-9
-6
5
16
15
26
21
-4
-20
2
34
-42
-94
22
75
57
42
-54
-77
-21
2
-14
49
76
-9
2
18
48
64
19
17
-29
-96
-118
-92
-42
-39
-62
-46
-16
9
11
7
7
9
22
17
19
11
31
82
79
42
42
51
27
20
2
-17
-7
1
-21
-47
-34
-17
-32
-51
-16
11
-9
-26
5
45
32
19
-6
-14
9
14
1
1
22
27
21
-11
-49
-82
-122
-135
-70
44
112
106
85
73
52
30
-3
-1
3
11
-13
-79
-95
-79
-51
-72
-46
36
-22
-37
49
75
141
195
112
19
-42
-67
-76
-72
-64
-89
-105
-103
-27
40
-34
-69
-49
-104
-108
-103
-82
24
65
60
75
112
146
160
126
85
64
41
37
32
32
27
16
7
14
4
-2
15
1
-12
-15
-29
-45
-34
1
-28
-117
-100
14
55
100
146
79
18
-7
-47
-64
-53
-64
-72
-50
-47
-48
-35
-19
-24
-29
-16
-15
-14
-7
1
-8
-47
-73
-37
-11
-61
-43
46
79
112
129
150
129
65
44
-32
-31
-29
-67
-43
-47
-24
8
-6
-37
-9
16
-12
-11
-6
28
22
-1
-6
-29
-31
-24
-12
-21
-22
-41
-106
-112
2
105
118
169
157
58
30
54
32
-59
-54
-46
-77
-51
-74
-105
-99
-75
-63
-60
-17
3
-10
-3
8
4
6
24
23
-2
-7
27
60
65
62
78
81
47
45
67
46
21
1
-31
-21
-2
-14
-13
-14
-35
-42
-39
-45
-27
-13
-26
-34
-9
14
14
-2
-16
10
49
29
11
18
21
44
34
11
-2
-30
-34
-17
-6
-31
-51
-17
17
9
-11
-7
-13
-10
-6
-19
-6
22
30
8
-42
-73
-16
25
17
26
19
26
16
-12
6
79
83
-21
-80
-105
-105
-55
-11
17
39
38
34
49
48
35
1
-21
-9
-14
-19
-33
-18
4
2
16
-12
-20
-10
-28
-14
3
13
9
28
54
42
27
25
21
5
1
-12
-47
-42
0
17
19
12
-1
-6
-6
-5
-10
-9
-6
-11
-19
-17
-31
-66
-42
21
47
58
39
1
14
26
15
20
19
6
-36
-57
-12
3
16
58
52
90
42
-108
-142
-139
-99
-46
-29
-14
7
54
57
6
-2
11
-10
-9
6
6
2
16
20
8
10
11
6
9
5
-7
-11
-14
-2
17
17
16
10
12
36
35
1
-24
-21
-10
-10
-1
-3
-16
-1
-16
-21
1
14
33
19
7
-49
-112
-62
19
102
140
112
63
22
17
-16
-32
-27
-44
-54
-57
-47
-40
-31
-14
-14
-10
-1
-16
-6
10
-9
4
19
20
18
-16
-31
-19
-3
7
11
41
44
15
-6
-45
-36
31
127
159
23
-54
-45
-66
-87
-80
7
62
58
14
-42
-32
-17
-14
-15
-18
-17
-16
-5
6
9
2
-4
4
2
-3
0
-9
-14
-10
-9
-10
2
9
16
58
57
4
-21
-19
-13
-24
-21
2
18
22
29
30
2
-8
-11
-2
13
13
6
-17
-22
-19
-18
-6
20
37
-8
-60
-44
-6
22
27
27
19
-7
-6
-7
-1
-6
-41
-48
-48
-36
7
37
37
31
22
14
14
11
-2
-4
2
14
-7
-18
-9
-75
-103
-18
59
47
77
190
202
118
-6
-109
-120
-133
-100
-50
-39
-26
-31
-37
-44
-21
0
4
-10
-24
-24
-57
-55
0
34
42
37
36
49
56
51
29
11
-3
-17
-5
11
-7
-13
-6
-7
-11
-1
46
53
24
-3
7
27
9
-1
-30
-47
-54
-47
4
30
54
4
-94
-46
13
-2
12
7
-7
40
95
87
26
-23
-9
4
14
20
2
-50
-70
-37
-32
-6
-22
-37
-15
17
32
37
16
-27
-2
-22
-32
-27
-25
-1
-15
17
42
43
33
-4
-52
-58
34
97
54
4
-4
-20
-6
26
6
-17
-24
-11
2
2
27
18
-29
-49
-58
-44
-36
-20
9
-4
-16
-22
-21
-8
-2
37
92
78
17
-26
-87
-117
-77
-49
-36
12
51
117
155
107
97
59
40
39
-9
-54
-90
-80
-62
-44
-2
11
-2
-76
-92
-6
-12
-29
-31
-42
-37
-32
20
49
9
-55
-72
-60
-37
44
90
42
-1
-12
19
92
99
80
74
77
83
68
37
-6
-1
10
32
86
105
82
13
-60
-103
-119
-88
-41
-4
-16
-83
-99
-59
-33
-32
-32
-35
-40
-20
9
9
-16
-8
48
84
36
-42
-35
-33
-77
-44
35
75
74
46
33
57
50
26
34
45
21
-12
-88
-178
-127
6
124
106
-30
-124
-153
19
200
183
130
47
-19
-43
-41
-59
-77
-72
-82
-74
-62
-57
-41
-12
-14
-12
-3
-2
24
29
18
24
38
85
126
56
-26
-39
-19
22
72
153
82
-62
-67
-107
-147
-138
-99
-55
-22
6
24
74
41
49
82
62
46
8
-2
-58
-170
-143
-44
-52
31
141
220
286
156
39
-31
-51
-12
17
36
-21
-121
-278
-310
-189
-108
-71
-51
-29
-49
-8
90
117
147
164
147
117
77
59
51
42
24
2
-14
-14
-14
-37
-39
-24
-21
-19
-18
-2
7
4
-2
-1
-9
-40
-22
-6
-1
2
2
2
-4
-4
-4
-4
1
8
9
4
12
9
-24
-34
6
26
11
8
-12
-21
-5
-11
-33
-16
9
3
11
-12
-7
12
2
19
19
16
13
12
14
2
6
15
6
-10
-16
-16
-1
-1
-30
-46
-55
-97
-81
4
34
70
60
-11
22
70
90
107
42
-21
-68
-76
-16
-9
-43
-64
-67
-59
-21
26
53
47
21
17
-65
-135
-43
44
87
86
74
109
59
-42
-76
-46
-34
-34
-4
27
61
49
14
22
14
-21
-30
-28
-24
-26
-36
-29
-38
-33
-2
-1
-22
-41
-32
-11
3
-9
-45
-31
29
61
82
59
-12
-2
94
48
-21
2
-35
-12
3
9
36
0
-47
-73
-21
54
95
135
97
-32
-75
-87
-117
-150
-178
-137
-74
28
71
75
81
50
25
13
71
85
30
11
16
37
29
62
118
90
35
1
-13
-27
-40
-52
-81
-73
-37
-54
-72
-64
-64
-29
24
37
27
9
8
42
57
37
-23
-59
-39
-17
7
1
17
13
-30
-35
-34
-22
-11
3
22
-1
-72
-141
-139
-34
89
157
171
176
174
84
27
13
-21
-42
-58
-50
-58
-53
-39
-46
-43
-32
-27
-26
-16
-5
2
-5
-12
-2
22
36
-38
-153
-158
-2
150
127
57
54
86
90
129
158
39
24
-16
-102
-80
-105
-93
-87
-65
-43
-25
-18
-62
-42
-19
-25
-17
25
41
4
-35
-23
26
27
21
3
16
22
-44
-95
-61
-3
-13
44
74
66
96
71
51
6
50
120
83
22
-59
-44
27
36
4
-85
-123
-49
28
82
88
-4
-46
-61
-118
-95
-54
-37
-7
14
26
32
21
12
19
12
6
8
-31
-44
-22
-10
-3
-6
8
29
42
-13
-72
-127
-167
-10
84
85
130
114
117
103
80
54
30
-11
-69
-59
-47
-19
15
49
43
-20
-27
-37
-29
-32
-67
-78
-85
-74
-18
27
7
-16
-40
-74
4
153
117
24
9
18
8
-40
-19
-15
19
41
10
16
-2
3
25
45
1
-38
14
24
-27
-89
-108
-77
-38
-6
49
99
106
6
-60
-4
-29
-104
-138
-90
-44
-1
162
190
17
-54
-73
-89
-83
-98
-74
-63
-37
-22
-65
-72
-12
80
118
117
110
97
101
98
90
77
67
56
48
49
42
38
25
26
24
9
-5
-3
-17
-37
-40
-62
-51
-37
-37
-21
-26
-26
-26
-34
-55
-110
-163
-145
-19
145
172
91
32
-22
-12
36
30
4
-2
-22
-39
-36
-29
-1
-11
-27
-24
-33
-67
-110
-72
24
65
50
24
-29
-42
17
53
64
57
52
52
29
10
-11
-20
-22
-30
-31
-32
-22
-1
11
-6
-17
-29
-26
10
24
35
64
80
31
-23
-31
-36
-7
-7
-52
-49
2
16
-6
-55
-38
29
19
-29
-127
-112
42
67
42
60
87
168
213
206
122
-7
-85
-123
-77
-68
-99
-57
43
75
-81
-218
-175
-138
-68
94
148
77
12
-4
-20
-26
-36
-49
-46
-35
-20
-27
-70
-59
128
269
202
102
61
16
-70
-98
-94
-143
-229
-290
-261
-123
72
145
176
253
324
367
305
195
67
-29
-147
-239
-158
-59
-45
-77
-87
-90
-92
-72
-60
-51
-32
2
0
-21
-26
-7
10
24
59
67
56
34
17
15
20
41
47
49
39
9
-20
-26
-14
3
16
0
-35
-31
-14
-27
-18
11
17
6
49
89
55
12
-36
-29
9
3
-13
-44
-50
-54
-55
-26
12
54
43
-10
-41
-46
-62
-49
-32
-62
31
72
51
99
94
46
-13
14
18
-4
-16
-63
-70
-38
29
63
5
-118
-235
-211
-54
14
42
97
142
152
111
106
150
128
1
-64
-102
-107
-58
-33
-11
39
99
65
0
-21
-27
-31
19
29
-136
-259
-198
-94
-30
25
52
44
6
-36
-7
42
53
41
32
22
19
26
21
36
59
44
11
-10
-14
7
17
6
4
12
13
1
1
-9
-24
-12
-5
-1
7
-6
-32
-54
-36
-1
14
12
12
16
19
17
13
14
7
4
6
-1
-31
-45
-18
-4
-45
-86
-94
1
117
90
74
97
133
201
101
-6
-39
-81
-90
-130
-107
-57
-26
-9
-9
21
-7
-37
-51
-53
-32
-24
-4
18
26
37
100
75
-64
-75
-38
-41
-36
-44
-39
-75
-87
11
88
92
70
37
19
11
5
7
2
-9
-1
26
34
30
29
17
19
21
14
-4
-31
-8
6
-84
-140
-64
19
36
32
189
320
144
-175
-380
-238
98
196
127
134
82
-27
-36
16
4
-85
-188
-297
-294
-160
-25
100
168
166
107
31
16
11
5
-4
-23
-32
-43
-36
-30
-31
-21
-12
8
17
19
39
55
59
46
39
28
16
35
39
29
28
35
34
20
32
32
2
-22
-46
-74
-72
-37
-12
-15
-15
2
19
5
-21
-23
-24
-24
-13
-2
0
1
3
3
-1
-2
-6
-6
-15
-53
-52
21
50
59
60
-13
9
55
62
94
65
29
-36
-52
-11
-64
-108
-120
-122
-106
-92
-41
-7
-8
-18
-8
17
27
40
46
44
41
26
12
58
123
70
-60
-152
-148
10
130
105
46
-51
-125
-144
-45
132
181
173
123
32
-37
-71
-55
-46
-31
-24
-17
-6
-24
-14
-4
-6
-20
-39
-25
6
47
80
51
-69
-123
-10
84
130
110
24
1
-15
-12
1
6
29
5
-29
-81
-152
-34
148
83
28
62
-7
-49
-77
-27
68
127
127
46
-88
-220
-95
9
70
64
-98
-99
-125
-137
-112
-59
-4
-57
-63
-45
-17
-12
-17
3
22
34
39
46
34
36
32
-2
-12
45
88
80
70
60
58
41
35
36
11
-16
-24
-19
-12
-8
-52
-145
-163
-11
69
89
166
122
90
81
79
110
84
31
-47
-94
-105
-105
-90
-66
-8
-24
-55
-46
-69
-85
-94
-101
-88
-37
-9
-25
-27
-14
37
177
203
99
42
-35
-40
34
109
147
62
-106
-206
-97
59
38
-40
-50
-55
-32
-10
-36
-21
42
121
94
-39
10
92
26
77
16
-216
-211
-12
73
54
6
-45
-1
22
6
31
0
-37
-62
-50
30
29
-33
-60
-43
-4
18
16
1
-17
7
65
88
60
37
44
48
41
10
-37
-41
-17
14
37
44
27
-35
-66
0
40
1
67
157
140
85
-15
-50
-47
-80
-92
-73
-46
-71
-95
-87
-66
-34
-26
-26
-41
-46
-32
-9
25
48
67
55
41
37
34
31
32
22
-1
12
34
-24
-103
-71
-22
-37
-64
-18
74
76
78
88
49
-67
-224
-189
-39
65
204
216
123
73
22
123
107
-62
-135
-152
-104
-61
-27
-44
-66
-69
-47
-11
-4
-4
-13
30
90
138
132
94
122
133
2
-171
-256
-191
-44
-13
-29
-65
-94
-69
-57
-51
-40
-26
-72
-115
-60
42
84
47
152
281
208
157
143
90
51
14
-13
-77
-125
-142
-99
-49
-36
9
27
6
-11
6
18
29
51
42
41
74
109
73
14
-29
-125
-156
-69
-7
18
34
11
-28
-47
-40
-42
-60
-70
-27
32
89
198
178
41
-94
-329
-474
-231
142
220
209
149
85
185
201
195
104
-38
-117
-144
-120
-109
-66
-85
-102
-80
-102
-116
-90
-28
2
24
53
62
65
72
72
69
42
14
6
-17
-42
-63
-61
-44
-2
45
59
55
47
60
59
42
15
-51
-94
-69
-36
-4
22
42
75
65
43
6
-32
-40
-49
-49
-50
-52
-69
-99
-58
94
115
41
155
213
123
44
-27
-17
109
236
195
-60
-247
-292
-308
-208
-91
-87
-162
-82
41
17
36
5
8
28
27
55
24
-21
-86
-65
-32
-11
34
36
44
34
32
44
50
62
60
58
53
40
32
48
50
39
31
2
-7
8
14
23
11
-45
-51
-31
-18
-20
-27
-8
-19
-24
-32
-43
-26
-23
4
32
44
49
11
-44
-41
24
63
60
37
15
-12
-31
-31
-31
-23
-29
-23
-15
-29
-44
-51
-52
-36
-9
12
20
17
-15
-79
-120
-113
-97
-99
-72
-29
78
158
175
288
275
60
-54
-24
60
185
142
-16
-54
-84
-102
-87
-83
-63
-39
-27
-32
-34
-7
15
2
4
11
2
-1
9
30
35
12
-16
-33
-34
-16
-11
-12
-16
-12
4
1
-47
-51
17
47
52
16
-22
-25
-11
19
21
-7
-75
-208
-271
-122
86
238
204
142
284
385
348
157
1
-90
-195
-194
-224
-190
-123
-151
-160
-179
-173
-109
-48
-21
-14
-4
2
-2
-5
17
65
101
102
113
123
97
92
87
72
44
12
-11
-24
-26
-60
-59
-17
12
33
34
39
13
-24
-49
-79
-97
-101
-77
-37
-21
-19
21
53
62
72
-22
-258
-413
-233
-28
76
172
301
597
675
486
274
47
-140
-210
-175
-160
-229
-236
-132
-123
-115
-87
-82
-54
-75
-76
-82
-59
-19
-22
-17
10
52
58
64
32
-10
-12
4
44
33
-32
-72
-40
-10
57
220
256
132
98
124
72
32
19
30
41
-117
-291
-217
-52
-10
-7
16
6
-1
-32
-65
-44
-57
-94
-113
-95
-51
-34
-9
31
81
67
8
1
-75
-130
-38
114
205
194
181
153
110
84
57
33
-60
-165
-155
-28
87
112
91
24
-117
-222
-81
50
21
17
7
14
4
2
5
-5
31
47
-9
-66
-42
-49
-82
-58
-13
29
53
63
14
-47
-50
-49
-84
-155
-125
-46
-15
55
107
99
93
69
18
-9
-60
-183
-143
186
337
188
109
63
-37
-96
-135
-162
-96
-109
-228
-216
-87
54
37
-19
53
165
174
74
87
172
210
142
35
37
39
-27
-62
-81
-116
-95
-88
-104
-102
-125
-89
-30
9
27
21
49
5
-4
55
80
159
213
87
16
168
132
-74
-92
6
45
2
-65
-99
-81
-123
-188
-203
-110
241
256
-94
-14
31
-70
-130
-224
-37
173
147
14
-109
-221
-203
-162
-122
-49
-62
-50
-10
18
27
87
123
106
107
91
104
105
88
75
69
64
46
43
31
56
47
-2
-7
-18
11
41
55
64
17
-44
-65
-76
-73
-44
-39
-20
-14
-23
-24
-55
-54
-46
-26
-14
-39
-38
-24
0
41
52
41
70
57
11
-34
-18
74
78
28
0
-5
-31
-59
-62
-64
-34
-1
16
-2
-47
-70
-72
-54
-44
-35
-18
-20
-35
-3
75
113
113
115
93
36
-41
-57
-19
-32
-33
66
193
171
69
-29
-88
-59
-101
-110
-168
-168
37
149
173
176
123
34
-54
-143
-55
125
161
115
-6
-26
-46
-196
-136
-127
-142
89
165
105
27
-72
-199
-290
-139
-13
-41
-42
-60
-51
-39
-50
-24
-22
-27
-27
-15
21
34
37
88
149
139
135
159
115
94
104
134
186
165
67
-54
-138
-175
-148
-113
-100
-112
-104
-17
71
74
42
14
-81
-185
-133
37
86
96
119
107
70
2
-92
-258
-339
-222
-57
-24
9
69
109
162
172
140
16
-17
-4
70
219
205
201
102
31
33
-18
-34
-69
-84
-106
-93
-123
-150
-130
-112
-111
-93
-35
-35
41
119
102
41
19
15
-28
75
244
274
152
-42
-36
45
51
69
8
-52
-157
-217
-185
-170
-126
-103
-71
-49
-48
-41
-25
-34
-57
-26
13
44
52
39
32
34
54
70
57
70
74
95
99
35
34
19
23
16
-17
-18
-54
-62
-55
-6
18
-31
-55
-80
-86
-7
25
-34
-34
-44
-70
-42
-46
-168
-148
-17
-70
128
490
510
345
215
123
57
17
-37
-105
-160
-234
-270
-224
-200
-175
-110
-52
49
122
85
64
104
102
-19
-92
-77
-106
-85
-7
48
58
57
68
11
1
14
-48
-76
-88
-77
-39
19
64
145
224
167
104
99
86
47
-24
-120
-183
-188
-109
0
20
19
-4
-61
-138
-187
-195
-200
-113
49
193
213
206
268
255
190
62
-89
-69
-16
-32
-74
-152
-181
-150
-99
-63
-97
-109
-22
55
69
57
87
-15
-163
17
324
397
315
163
5
-32
-55
-79
-54
-9
17
3
-21
-48
-54
-85
-130
-60
26
41
21
-9
-16
-34
-69
-96
-77
-41
-33
-45
-20
2
-46
-125
-181
-117
-21
93
217
216
165
183
203
155
84
16
2
-31
-75
-94
-108
-70
-85
-201
-328
-228
-45
-65
-41
138
308
289
224
177
46
-84
-170
-97
-24
-16
-4
-21
-7
11
-2
-41
-44
-29
-42
-70
-120
-148
-27
110
89
18
11
89
174
268
289
154
46
-19
-104
-158
-179
-170
-175
-198
-170
-84
-30
-20
-23
4
41
19
24
-44
-107
-74
-7
127
213
287
239
89
104
62
-41
-90
-107
70
120
-13
-80
-130
-115
-75
-2
8
-47
-100
-145
-74
22
72
100
120
104
59
30
19
-6
-52
-77
-82
-68
-83
-156
-174
-40
148
233
271
230
106
62
57
32
30
-32
-135
-161
-149
-110
-71
-51
-34
-53
-35
-4
-21
-69
-109
-81
-64
-39
55
125
196
206
99
47
-4
-43
9
-12
-65
-118
-168
-104
-24
72
162
155
205
231
148
40
-120
-297
-314
-188
-75
67
174
181
94
-25
-97
-74
-29
-24
62
61
17
30
26
63
36
-58
-100
-142
-180
-103
-41
-60
-47
-9
-16
-34
-12
41
114
79
-22
-16
94
162
182
244
239
165
104
99
65
-41
-154
-195
-148
-154
-119
-80
-71
-5
-14
-87
-92
-74
-102
-85
5
49
38
22
13
83
139
112
85
40
7
-28
-53
-42
-97
-201
-246
-188
-29
152
233
211
194
165
161
193
148
131
71
-1
-24
-120
-167
-165
-176
-216
-181
-115
-113
-76
-62
-44
-30
-34
-47
-54
-47
-31
17
38
44
7
-19
84
242
257
252
276
136
24
-52
-112
-127
-167
-155
-172
-148
-118
-140
-124
-100
-54
-25
6
15
-17
-36
-54
43
201
303
316
269
306
264
158
91
1
-15
-19
-70
-128
-113
-92
-126
-135
-105
-67
-87
-104
-100
-90
-42
-72
-220
-186
-26
51
224
291
261
234
172
224
173
-1
-98
-120
-143
-115
-90
-100
-94
-109
-105
-97
-76
-99
-127
-106
-155
-166
-95
-14
171
297
312
340
309
247
151
51
-41
-188
-231
-177
-130
-71
-44
-71
-79
-22
-23
-67
-62
-16
31
-39
-113
-52
12
20
39
71
72
55
47
49
22
0
7
14
-5
-40
-46
-52
34
90
71
155
140
97
114
18
-49
4
48
46
39
-11
-128
-193
-148
-134
-143
-95
-43
-38
-65
-87
-177
-270
-248
-151
34
249
342
446
478
333
233
105
-49
-135
-83
-49
-130
-148
-103
-74
-69
-35
-18
-19
-62
-195
-332
-288
-82
88
170
126
120
147
137
168
218
268
222
190
51
-146
-203
-189
-134
-122
-86
-81
-100
-80
-80
-56
-29
-65
-124
-180
-233
-191
-24
151
289
389
365
349
337
160
26
-1
-21
-87
-110
-111
-170
-120
-114
-176
-271
-416
-500
-404
-160
70
295
422
549
524
297
210
320
453
380
155
-80
-221
-326
-382
-362
-345
-292
-254
-199
-115
-70
-39
-23
-44
-67
-17
52
87
92
102
62
-18
19
105
152
147
92
37
-14
-51
-78
-103
-90
-100
-98
-46
-77
-67
72
205
324
317
269
175
23
-2
-46
-79
-101
-126
-131
-127
-135
-172
-168
-208
-165
8
155
246
258
204
101
16
27
54
42
14
-61
-102
-72
-77
-61
-69
-150
-176
-157
-139
-122
-64
-11
62
128
254
478
429
173
1
-93
-110
-51
-41
-70
-50
-94
-157
-216
-213
-166
-178
-151
-200
-56
343
504
446
317
177
79
3
-24
-33
-79
-109
-121
-138
-131
-175
-224
-206
-127
-22
84
163
164
170
138
39
12
11
-1
-15
-39
-37
-19
-32
-36
-31
-59
-55
-69
-98
-110
-93
-90
-108
12
162
248
304
288
256
204
82
-36
-102
-99
-101
-130
-128
-110
-86
-92
-114
-105
-56
-47
-29
59
112
142
160
103
14
-15
-8
-25
-79
-70
-58
-68
-50
-42
-20
-4
0
1
-2
4
-1
-24
-4
-1
-22
17
51
45
47
55
59
34
-19
-44
-22
21
9
5
-1
1
24
-3
4
-13
-46
-25
2
51
85
61
73
67
14
-7
-21
-45
-73
-65
-62
-47
2
34
35
-3
-9
13
24
9
-14
-44
-74
-43
1
27
37
11
-49
-57
-2
9
17
29
51
59
-2
-37
-14
5
-11
-46
-85
-110
-122
-87
2
55
49
41
61
67
41
-2
-24
-1
41
55
-3
-47
-36
4
72
120
101
49
26
4
-40
-85
-80
-40
34
102
100
44
-62
-115
-131
-137
-135
-117
-67
-39
-36
-53
-58
-60
-24
36
55
63
84
99
108
105
78
78
101
107
84
41
30
55
60
50
20
-2
-19
-37
-37
-6
16
-17
-36
-52
-64
-68
-90
-78
-53
-57
-75
-112
-127
-102
-47
36
133
210
197
164
125
72
26
-12
-22
-59
-93
-85
-87
-105
-90
-97
-80
-27
-51
-54
-17
-2
1
4
24
34
42
46
32
6
-19
-77
-119
-82
-6
80
156
249
256
144
66
30
1
-9
-12
-31
-56
-55
-56
-74
-104
-102
-51
-23
-20
-26
-21
-12
-21
-24
11
60
62
28
-16
-35
-46
-52
-18
-10
-39
-76
-71
-36
12
105
140
153
206
166
72
37
34
9
14
-4
-113
-178
-162
-130
-85
-28
17
4
6
25
-6
-10
-25
-47
-46
-51
-34
12
122
165
79
-14
-95
-131
-82
24
74
26
24
39
44
32
-37
-46
19
26
-19
-27
-47
-113
-105
38
195
268
240
116
4
-51
-100
-107
-57
-31
-81
-102
-47
-12
-34
-46
-2
31
31
4
-15
-21
-47
-35
1
-5
-25
-20
-9
4
10
-6
-6
21
25
29
64
79
60
14
-3
17
36
27
-30
-48
-46
-62
-52
-6
16
-16
9
59
46
25
24
22
-15
-7
44
38
1
-70
-122
-154
-135
-60
25
128
135
112
69
22
30
11
5
-33
-103
-105
-73
-107
-91
16
84
145
104
60
59
27
60
60
-8
-95
-123
-111
-134
-100
-27
-12
41
112
103
51
-7
12
-6
-30
-2
-11
-4
-29
-31
2
21
39
36
44
70
86
55
-6
-46
-55
-59
-49
-49
-50
-40
-20
-26
-46
-24
-26
-35
-19
-6
11
20
31
53
49
40
39
14
2
-4
7
23
-6
-29
-39
-58
-51
-8
29
67
72
38
49
122
126
32
-50
-63
-57
-109
-133
-60
114
207
43
-104
-28
107
126
99
123
37
-63
-63
-91
-86
-109
-176
-203
-193
-150
-79
-29
-21
5
45
44
-1
-11
29
80
106
73
23
-3
47
106
77
52
54
24
-22
-42
-42
-27
6
-8
-16
-13
-42
-31
-17
-4
-2
0
28
17
-8
-34
-11
34
24
-7
-6
26
14
12
-21
-68
-32
39
106
170
158
110
127
98
70
2
-46
-52
-127
-170
-188
-168
-191
-170
-69
2
46
32
23
14
17
-7
-41
-42
-16
27
25
-14
-9
64
57
10
12
74
128
142
169
140
78
30
10
-12
-37
-56
-97
-109
-89
-82
-118
-128
-42
61
73
59
52
-36
-102
-62
-22
6
66
67
-7
-7
70
105
94
45
21
-5
-61
-36
58
113
35
-16
-67
-148
-163
-147
-100
-89
-80
-91
-87
-84
-140
-145
-53
54
159
252
236
177
102
97
118
50
21
25
20
12
3
-19
-49
-70
-96
-74
-49
-58
-53
-36
-42
-63
-56
-47
-24
-4
-12
-26
-26
-22
-16
8
52
120
132
124
126
94
80
57
13
2
1
-9
-31
-24
-2
24
49
65
75
41
6
-34
-82
-92
-59
-25
-1
23
12
-27
-39
-15
-9
-12
-54
-83
-84
-112
-95
-80
-82
-69
-102
-105
-2
157
224
150
92
84
99
90
37
-6
-45
-74
-97
-87
-72
-67
-65
-75
-62
-53
-42
-8
19
35
37
46
67
74
54
23
78
142
117
39
-16
-11
17
26
-27
-64
-59
-15
16
-13
-34
-53
-55
-37
-12
-6
-11
-23
-27
-21
-21
-10
-17
1
42
80
99
57
17
5
15
44
44
12
-33
-71
-74
-49
-30
-46
-44
-5
70
121
59
-6
-31
-42
-78
-111
-84
-36
-21
-37
-5
7
28
31
-34
-11
64
71
42
31
12
-31
-52
-4
51
68
55
-1
-44
-51
-59
-50
-7
63
116
112
81
66
54
4
-43
-38
1
6
-38
-59
-51
-29
-31
-34
-3
6
-4
-31
-41
-41
-36
-26
4
43
29
28
24
31
62
68
72
46
27
-12
-89
-92
-67
-59
-49
-89
-118
-49
-17
-37
5
46
56
48
36
23
-12
-9
44
69
36
3
-14
-19
21
19
12
38
27
57
54
-6
-16
-11
-4
-13
-4
21
2
-11
-2
-21
-31
-4
11
39
35
-33
-35
-29
-52
-41
-6
23
-26
-82
-96
-37
61
80
4
-44
3
35
102
191
175
75
-6
-37
-70
-96
-144
-157
-103
-68
-81
-108
-145
-162
-63
81
141
132
113
84
57
54
46
22
11
-4
-33
-37
-21
-2
25
41
37
22
24
52
69
69
51
35
20
-1
-4
-17
-56
-79
-75
-79
-68
-37
-12
7
24
54
69
46
7
-31
-75
-115
-84
-60
-82
0
112
53
55
118
78
82
26
-52
-106
-107
-79
-69
11
7
-29
24
81
31
-21
-8
-14
5
-7
4
15
9
29
7
0
-11
-12
59
65
-16
-11
12
40
44
-11
1
23
-55
-157
-144
-112
-45
41
68
65
50
69
36
12
2
-12
-4
0
-4
-64
-107
-84
9
75
88
87
54
57
49
43
38
11
-1
-33
-43
-7
52
85
61
7
-43
-90
-82
-47
-58
-45
1
-1
-49
-28
-14
-40
-39
-59
-67
-63
-44
-44
-54
-6
88
123
70
10
-24
2
90
122
81
42
-17
-75
-90
-24
25
-46
-77
-63
-39
-16
0
75
75
27
26
41
104
92
11
-47
-39
-29
-37
48
63
26
28
52
48
-7
-13
2
-32
-55
-24
-1
-12
-39
-46
-55
-47
-1
-6
-47
-42
-2
42
17
-44
-34
-7
17
51
70
67
55
7
-25
-34
-38
26
85
86
19
-37
-44
-63
-36
-17
-55
-69
-60
-53
-31
-20
-21
-22
-40
-36
-8
14
21
27
63
87
55
24
34
17
-2
-26
-64
-61
-45
-14
22
44
67
55
6
3
27
-11
-10
26
-17
-57
-62
-37
51
145
86
-60
-132
-169
-143
-41
55
102
118
69
2
12
31
39
10
-18
8
20
3
-2
34
52
32
5
-24
-21
-11
-71
-107
-54
16
65
49
75
133
140
181
173
31
-133
-175
-102
-89
-216
-170
-29
-24
-35
4
34
-6
-5
-41
-35
55
104
82
47
14
-45
-91
-165
-88
-3
19
63
17
-4
1
-9
-13
34
48
-37
-80
-57
-16
27
56
46
51
49
44
39
16
27
47
49
19
-16
-29
-24
-7
10
9
-6
-20
-36
-23
-4
-9
-10
-4
6
-1
-11
-4
-12
-2
6
0
5
8
8
-2
-7
-7
-6
1
7
4
-1
6
2
6
-20
-74
-54
28
133
96
23
75
37
-34
-87
-47
41
-13
-34
6
110
7
-175
-152
-221
-213
-103
0
38
7
11
-14
-3
41
62
42
104
152
124
115
68
94
126
87
34
-26
-70
-63
-10
14
38
4
-25
-16
-51
-55
-54
-52
-54
-51
-36
-42
-46
-27
21
19
-21
-6
18
30
58
96
128
62
-52
-80
-47
-29
-39
-39
-80
-102
-55
-23
23
34
52
49
-7
3
32
13
-34
-64
-52
-63
-51
0
-18
49
215
185
48
-37
-34
4
-2
9
-12
-66
-61
21
41
-45
-32
92
85
17
14
-3
2
-13
-14
-14
-40
-42
-44
-43
-41
-32
-29
-14
15
27
13
8
26
27
17
7
1
2
2
8
4
6
17
17
10
-4
-16
-25
-19
-5
-2
6
2
-9
-1
11
32
49
38
26
4
-12
-9
-18
-35
-40
-37
-7
22
-21
-65
-61
-7
29
54
128
72
-79
-83
47
86
-37
-145
-166
-115
-49
-26
-39
-19
-52
-123
6
116
134
135
125
107
85
158
125
66
-16
-136
-149
-168
-88
53
89
44
11
-46
-82
-51
-21
20
32
34
62
38
-44
-32
-7
-16
-2
-9
17
18
19
21
7
0
-11
4
-6
-30
-32
-36
-29
-4
4
-8
-13
-20
-12
4
14
19
19
16
-1
-13
1
33
32
22
16
4
1
-16
-22
-31
-59
-58
-18
10
-2
-14
13
38
32
28
10
-8
5
37
41
49
77
47
-4
-85
-170
-137
-34
21
47
72
72
39
33
32
12
24
32
-13
-61
-11
34
-24
-98
-109
-16
32
-31
-37
-52
-69
-23
2
0
0
3
-1
12
21
19
16
11
13
19
23
12
9
8
7
22
51
65
51
35
6
-8
47
71
16
-52
-141
-166
-86
-16
22
20
-12
-17
-6
-12
-12
34
97
74
1
-13
79
156
64
-36
-57
-40
-56
-93
-57
-61
-56
-37
-30
-9
-19
-6
10
20
21
24
35
34
32
5
-14
-6
2
-2
7
28
39
25
-10
-4
13
6
2
-6
-7
21
43
94
129
10
-55
8
14
-32
-58
-54
-55
-41
-31
-40
-33
-21
-7
-29
-63
-55
-51
-59
-12
36
44
8
-22
17
-21
-11
75
79
72
97
143
112
26
-76
-97
-68
-80
-69
-67
7
74
67
69
27
18
63
83
9
-107
-120
-93
-82
-63
-52
-26
8
27
29
17
-2
-12
-15
-15
-2
7
4
1
-3
0
-7
-16
-8
-10
-22
-34
-32
-26
-24
-17
-18
-14
-4
10
26
11
-7
10
50
90
112
104
77
61
59
62
53
72
89
62
11
-37
-41
-90
-156
-81
34
45
-17
-74
-16
60
-5
-4
71
33
16
58
84
16
-68
-113
-150
-101
-87
-141
-114
-46
-29
-4
14
17
2
-35
-11
70
182
175
31
-57
-82
-84
-56
-26
-18
-24
-29
-14
-2
1
18
34
34
27
18
24
24
9
11
11
11
19
30
26
7
-2
-1
8
10
16
6
-12
-2
6
11
0
-19
-16
-1
9
6
7
-4
-20
-34
-37
-14
1
6
1
1
-5
-7
13
9
-23
-47
-49
10
0
-74
-11
36
-24
-72
-29
94
157
118
99
140
69
-14
-19
-41
-40
-54
-73
-80
-79
-79
-72
-51
-36
-21
-1
25
38
33
24
26
54
60
7
-39
-42
-16
-4
10
53
37
-3
-19
-33
-29
-29
-33
-42
-59
-41
29
64
64
52
16
-16
-3
37
36
32
26
7
-13
-11
-6
-33
-19
-17
-34
-21
1
29
52
57
52
41
19
0
-2
8
-9
-42
-55
-54
-57
-80
-79
-31
4
19
29
52
71
30
-7
-6
-16
-17
-19
-14
-6
-6
-1
-6
-1
8
17
12
-18
-37
-22
4
14
19
21
6
-44
-99
-99
57
296
335
192
51
-42
-102
-125
-124
-118
-102
-117
-117
-90
-54
-25
-24
-18
-11
14
30
36
39
30
26
34
45
19
-7
2
41
84
94
19
-44
-4
23
37
26
-8
-13
-22
-55
-55
29
88
60
9
-37
-53
-37
-26
-16
-17
-16
-17
-18
-6
-7
-1
-3
-6
1
-2
-3
-1
2
0
2
1
-2
-4
-1
0
-5
-3
9
21
12
5
1
-9
-6
1
-1
-2
2
-1
-3
-6
-5
-5
-7
3
29
36
-6
-23
-18
-34
-40
-54
-44
-4
-16
-22
32
111
120
71
36
3
-12
-18
-7
-86
-237
-207
-44
61
123
178
205
176
110
60
11
-29
-54
-64
-65
-75
-74
-86
-101
-120
-125
-135
-84
46
30
11
114
171
180
150
160
153
60
-36
-124
-155
-123
-74
-38
-31
-50
-33
-34
-45
-32
-44
-26
9
16
30
39
19
11
18
26
12
5
6
6
9
7
37
107
123
47
-55
-138
-106
-38
-34
-37
-39
-17
16
17
44
125
133
102
102
34
-6
-70
-118
-89
-90
-75
-86
-55
-24
-19
-34
-144
-221
-166
11
133
123
142
169
142
94
45
84
95
-26
-72
-49
-18
12
-3
45
41
15
12
-11
-19
-50
-49
-48
-42
-32
-24
-14
-6
22
27
15
-17
-17
21
35
36
21
4
15
65
88
-14
-90
-55
-34
2
79
120
25
-87
-78
-42
-26
-44
-50
-42
-44
-37
-16
3
-7
-14
-3
-8
-19
-5
22
62
102
124
129
73
14
-12
-36
-69
-120
-106
-32
-23
-47
-4
14
19
36
59
65
31
31
8
-20
-32
-65
-65
-46
-46
-50
-19
46
126
130
65
10
-61
-82
-72
-46
-24
-31
-35
-46
-38
-41
-28
-14
3
22
18
16
24
47
24
-4
-12
-22
-21
-44
-36
24
80
84
26
41
130
132
60
-48
-111
-63
79
201
181
138
-14
-157
-127
-113
-81
-47
-67
-105
-61
9
-27
-72
-74
36
221
195
16
-79
-48
4
-51
-100
-123
-138
-87
-12
53
91
100
67
29
5
-6
-13
-26
-24
-24
-37
-36
-17
10
37
45
56
45
32
37
32
32
34
20
-11
2
29
8
-37
-58
-53
-16
11
21
24
-12
-41
-67
-83
-84
-54
4
45
88
96
90
109
132
55
-72
-50
-6
-59
-147
-146
6
129
163
105
19
15
-21
-39
32
-17
-84
-75
-65
-47
-44
-7
-40
-132
-99
7
19
9
46
39
26
24
48
55
-2
-69
-141
-175
-140
-57
12
47
65
74
77
55
30
49
72
39
33
31
-2
-2
49
92
78
49
7
-19
-41
-67
-64
-20
29
46
37
26
31
4
-13
-16
-40
-36
-55
-82
-67
-52
-49
-47
-17
28
57
67
22
-49
-79
-52
95
176
115
59
25
120
176
124
14
-92
-81
-129
-236
-263
-234
-177
-112
-57
11
50
44
43
60
71
77
68
31
10
-2
-7
-2
6
21
21
21
31
32
31
29
25
15
12
19
19
12
-11
-44
-36
19
46
36
28
9
17
41
47
28
-4
-25
-14
25
17
-40
-53
-37
-36
-24
-17
-21
-20
-1
42
81
12
-143
-185
-110
14
145
248
280
154
27
18
2
-99
-178
-176
-160
-152
-178
-158
-65
2
14
21
36
13
11
50
62
60
80
67
55
85
2
-145
-163
-85
-20
36
69
92
109
77
47
11
-19
-36
-46
-15
-4
6
99
227
306
238
44
-95
-160
-183
-199
-176
-140
-123
-84
-70
-32
2
19
29
3
27
66
33
-4
1
27
42
29
24
-29
-50
70
259
302
110
5
-26
-100
-97
-12
64
-18
-140
-198
-254
-315
-262
-123
-20
-2
-33
69
152
180
185
138
118
75
79
80
51
7
-62
-102
-115
-107
-56
-3
11
26
46
70
81
53
26
16
14
13
16
5
-7
-12
-21
-4
16
16
8
4
-6
-14
2
7
0
-5
-12
-21
-24
-31
-25
-14
-21
-17
-7
-14
-17
-8
-26
-62
-69
-60
-26
35
48
41
31
-2
3
40
67
47
16
10
1
-11
-30
-41
-17
13
52
135
152
79
17
-21
-49
-88
-149
-234
-238
-188
-100
57
228
269
137
33
8
-30
-111
-133
-24
219
301
173
145
2
-164
-134
-120
-142
-129
-118
-181
-195
-120
-57
4
39
38
16
36
97
123
94
26
8
67
94
72
77
59
20
17
19
2
-3
12
9
14
21
13
26
34
17
-26
-42
-32
-31
-37
-75
-127
-143
-125
-66
38
126
151
124
118
69
-46
-77
-48
-50
-92
-101
-107
-149
-132
-47
42
48
32
70
95
69
55
68
82
102
57
15
-8
-54
-34
-21
-46
-45
-32
-36
-67
-73
-30
22
-4
-21
26
-9
-2
37
-64
-60
48
62
59
9
22
65
54
87
117
72
-19
-38
-36
-40
-27
-27
-34
-42
-22
-5
-13
-14
-18
-12
2
8
0
-11
-4
-1
-3
-1
-1
11
30
28
17
-6
-11
-4
-19
-31
-38
-26
-9
22
44
36
34
22
3
-4
-15
-19
-9
-1
2
6
1
-15
-19
-22
-33
-27
-23
-20
0
12
24
24
17
24
11
-6
-14
-23
-22
-12
-12
2
14
27
58
31
-29
-46
-31
-23
-12
1
28
37
40
47
17
-11
-34
-29
-19
-26
-10
14
24
42
31
-65
-83
-36
-19
11
-6
-20
-9
-38
-14
26
37
27
-24
-37
-102
-173
-59
99
49
-54
-16
57
123
152
160
152
63
-9
-14
-30
-43
-58
-62
-36
-40
-14
12
-22
3
25
24
43
34
14
-10
-28
-65
-97
-99
-59
-8
32
43
-4
18
71
46
-15
-77
-63
78
216
190
101
39
-58
-75
-40
-17
5
-25
-67
-125
-165
-190
-168
-62
-9
-62
-94
-78
-9
137
196
125
91
70
32
39
54
90
71
-11
-19
6
-26
-61
-110
-135
-100
-29
38
42
49
60
116
170
102
69
38
-113
-155
-104
-85
5
104
112
46
-14
-12
23
10
-2
16
-52
-85
-86
-135
-100
-47
-1
37
46
112
145
76
59
65
17
-26
-62
-80
-73
-52
-51
-82
-87
-39
-7
6
12
4
17
12
7
13
18
27
25
14
-2
-11
9
16
11
28
32
26
23
22
8
-12
-32
-44
-42
-36
-47
-130
-162
19
224
316
345
185
16
18
-44
-116
-89
-80
-105
-96
-92
-75
-61
-94
-102
-88
-65
-39
-3
-1
-31
-25
-8
12
34
42
44
42
33
1
-62
-55
60
174
203
157
94
12
-34
-32
-46
-56
-69
-64
-67
-47
3
38
16
-112
-143
29
195
164
77
-72
-238
-205
-59
146
247
256
258
175
-29
-215
-125
29
72
46
-7
-65
-148
-147
-79
-17
-15
-47
-49
103
230
107
6
-35
-70
-39
-37
-80
-109
-120
-137
-137
-107
-74
-41
2
31
36
30
26
36
50
49
39
37
46
45
39
44
38
29
48
58
19
0
21
16
-6
-42
-67
-19
46
-9
-100
-17
72
189
276
61
-47
-65
-81
-41
-107
-158
-193
-158
-131
-100
-52
-41
-6
19
61
24
6
133
183
117
52
5
12
17
-18
-35
-53
-29
54
148
173
130
100
79
60
27
-20
-57
-97
-153
-160
-67
82
220
277
196
162
112
-145
-210
-213
-293
-297
-299
-166
-29
3
-42
-52
-22
-9
12
1
15
32
32
11
-1
17
-17
29
130
75
24
54
66
84
83
102
93
27
-29
-85
-137
-178
-97
2
-15
-31
22
94
112
128
131
90
29
-110
-228
-119
-33
-115
-122
-116
7
289
401
279
211
244
130
-23
-60
-27
4
-59
-195
-284
-292
-280
-243
-208
-175
-142
-121
-79
-8
79
138
107
39
63
73
47
50
152
266
195
192
193
120
92
73
55
-28
-65
-80
-91
-95
-112
-92
-77
-43
-21
24
122
77
-64
-86
-94
-94
-69
-49
-18
-31
-49
-49
-48
-66
-62
-34
-2
24
4
-19
-5
17
8
-26
-28
-87
-195
-99
11
104
524
686
379
256
195
115
48
-11
-62
-184
-246
-275
-267
-274
-264
-196
-155
-120
-67
30
77
80
82
32
-4
-56
-77
17
109
154
148
61
-155
-253
-55
90
294
401
191
-62
-297
-203
28
83
62
27
41
7
-120
-170
-50
-66
-178
-258
-81
338
456
344
200
100
-74
-220
-210
-182
-162
-164
-135
-116
-107
-92
-77
-36
10
44
49
60
69
74
81
90
94
90
69
39
47
60
56
37
20
-12
-61
-90
-85
-41
-3
18
24
60
69
2
2
87
140
111
65
11
-135
-288
-358
-309
-9
380
479
275
168
180
51
-36
-105
-158
-158
-198
-193
-186
-135
-59
-15
-1
19
89
62
-6
12
1
-25
-39
-49
-26
31
117
130
59
-27
-36
-43
-64
-47
-50
-32
-27
-27
-24
-16
12
68
117
30
-145
-307
-269
17
195
136
56
53
112
197
174
99
125
71
0
-17
-18
53
68
-36
-107
-127
-231
-171
12
123
125
16
-86
-90
87
80
37
144
37
38
97
102
149
52
12
-46
-180
-337
-348
-168
-95
-117
-135
-119
-115
-77
-22
15
2
1
41
62
87
78
83
75
71
92
98
110
80
31
-24
-85
-72
-94
-243
-109
246
246
124
113
138
190
184
120
2
-75
-77
-75
-110
-120
-105
-84
-60
-51
-39
-51
-43
-27
-34
-35
-49
-71
-57
20
77
85
70
-11
-131
-60
144
157
59
56
138
159
80
-7
-51
-44
-21
-21
-63
-63
-51
-143
-220
-153
6
58
-30
52
78
-32
-43
-213
-293
-19
304
340
286
231
133
107
29
-39
-102
-135
-139
-240
-466
-426
1
196
239
290
439
609
392
229
87
-184
-329
-367
-292
-243
-276
-288
-230
-189
-178
-128
-69
-24
18
69
100
130
140
108
80
88
60
64
243
316
264
282
115
-17
6
-44
-79
-120
-151
-172
-171
-181
-238
-262
-260
-287
-366
-238
32
180
342
355
239
244
200
-16
-176
49
205
284
626
591
429
253
-73
-324
-685
-640
-420
-407
-316
-281
-68
160
148
122
90
89
-15
-249
-325
-92
191
319
406
375
292
263
244
89
-119
-128
-109
-95
8
204
310
76
-195
-304
-357
-325
-315
-265
-119
-62
-158
-185
-125
-95
71
185
170
176
128
54
15
-6
37
94
84
94
90
-11
-42
106
186
176
151
72
-60
-235
-275
-90
193
180
-45
76
82
-37
52
-18
-71
-112
-175
-185
-133
-5
31
29
43
27
0
4
-10
-2
4
-37
-41
-36
-29
-87
-128
-109
-174
-185
-155
21
324
256
186
193
93
125
127
232
226
74
49
53
140
176
202
81
-142
-205
-276
-353
-453
-311
-208
-266
-22
99
133
150
97
86
8
67
36
-86
-85
-37
-21
-104
-190
-350
-279
16
110
238
281
311
376
243
123
-3
-64
-68
-101
-132
-161
-89
-13
-26
-45
-58
24
99
19
-5
16
-12
-7
54
108
99
-35
-72
151
286
289
173
17
-106
-119
-18
-185
-238
-155
-82
6
-39
-48
-105
-99
-79
-69
-52
-59
-14
-21
-12
-29
-6
39
28
21
-27
-64
30
224
264
175
212
322
171
-147
-307
-213
-52
-47
-160
-284
-50
78
-134
-175
49
246
181
83
-147
-101
98
46
139
183
274
377
240
27
-100
-146
-174
-136
-124
-100
-132
-195
-163
-70
-268
-570
-185
400
438
99
119
496
407
45
-135
-190
-283
-359
-265
-77
-29
-13
4
-24
-1
4
46
43
-30
-82
95
247
143
149
114
98
89
18
4
-22
-22
-50
-28
-1
5
-33
-84
-73
-70
-18
37
17
-36
19
85
43
-20
-66
-85
-62
-28
-84
-112
-37
19
52
97
116
104
91
61
3
-92
-155
-64
53
70
76
64
41
36
-7
-48
-54
-62
-123
-163
-118
-40
54
89
74
143
301
355
223
124
-16
-273
-274
-94
-36
-16
6
-47
-54
45
39
-63
-107
-104
-90
-126
-44
153
106
21
-3
-62
-88
-127
-144
-144
-75
-24
12
57
32
44
65
70
54
46
57
77
135
121
63
26
-27
-123
-244
-262
-307
-251
198
377
290
335
232
198
197
153
38
-181
-233
-208
-151
-107
-97
-76
-52
-24
-32
-46
-70
-36
26
50
45
12
-23
-27
3
12
11
16
17
17
12
3
-7
-12
-6
16
23
22
24
19
14
17
-1
-45
-72
-140
-202
-163
-84
20
-69
-110
303
473
448
445
49
-151
32
5
-207
-98
144
36
-97
-125
-155
-161
-251
-456
-432
-38
130
163
179
127
146
105
76
26
-16
-7
2
11
16
25
34
62
60
-5
-49
14
68
72
64
11
-123
-256
-168
-47
-26
40
143
262
269
236
111
-69
-331
-577
-385
-227
-293
-278
-6
438
554
460
312
244
224
92
7
-71
-86
-86
-115
-117
-117
-118
-102
-25
-24
-171
-195
-47
-93
-305
-323
-102
65
302
464
312
249
213
221
218
80
-70
-128
-150
-215
-226
-215
-234
-358
-379
7
374
360
246
111
-17
-163
-400
-542
-309
94
233
269
313
383
455
396
248
11
-86
-21
9
-56
-114
-55
-46
-31
-62
-71
-92
-149
-122
-143
-129
-115
-95
-45
-25
-59
-122
-53
158
251
115
2
-47
-41
-26
-47
-54
-82
-88
-77
-54
-19
10
43
59
33
-165
-455
-276
249
450
452
359
269
256
189
86
-92
-152
-153
-157
-118
-103
-75
-86
-92
-96
-119
-105
-130
-248
-480
-604
-192
298
421
595
736
768
656
367
85
-150
-201
-209
-229
-268
-291
-282
-296
-218
-73
88
135
148
186
100
34
-2
-194
-339
-177
-47
-79
-59
-65
-26
24
31
37
19
26
33
39
42
37
36
34
8
-21
12
42
51
47
31
32
31
16
0
-1
-2
9
11
-9
-2
-2
-11
-17
-14
-6
-17
-64
-79
42
75
-51
-126
-96
32
90
97
86
49
42
11
-10
-46
-83
-17
148
125
-63
-94
-94
-161
-206
-145
57
67
64
266
157
-16
102
190
82
-70
-80
137
358
281
-186
-539
-392
-152
-31
4
54
104
19
-104
-178
-105
36
21
-67
-70
173
239
-77
-117
161
302
296
175
-16
-40
77
41
-163
-204
-196
-236
-231
-248
-188
-135
-104
-65
-24
11
19
52
77
101
117
127
119
99
80
61
-21
-275
-450
-185
232
345
345
414
304
-58
-251
-5
137
91
171
302
332
226
108
-94
-227
-197
-200
-248
-254
-224
-198
-157
-166
-277
-385
-150
122
83
220
338
269
193
114
19
-121
-184
-344
-557
-330
235
311
86
1
71
402
677
540
-114
-244
238
470
433
-17
-279
-251
-298
-173
-128
-132
5
-19
-147
-134
-72
48
4
-109
-97
-272
-402
-173
-46
-333
-153
100
49
387
519
335
160
19
-16
-61
-100
-121
-193
-151
-101
-125
-77
-67
-98
-84
29
99
11
-140
-40
178
255
284
306
513
442
233
82
-208
-274
-264
-265
-456
-584
-408
31
518
541
463
263
173
205
34
-122
-401
-337
-73
-42
-119
-357
-52
404
290
213
36
-22
75
38
30
-80
-109
-126
-137
-80
-71
-81
-112
-97
39
123
-50
-178
-100
-25
-220
-220
194
473
516
244
37
-131
-258
-176
-141
-55
-185
-503
-418
113
465
647
471
45
18
250
362
-72
-489
-526
-451
-251
-51
48
60
111
173
190
143
55
-12
-22
-11
-26
-57
-47
-8
-24
9
75
112
89
-4
5
23
-2
-5
-15
-19
-70
-167
-238
-362
-414
6
311
339
312
77
102
263
121
-580
-600
47
163
240
400
575
589
503
168
-177
-277
-372
-354
-347
-276
-259
-190
-109
-147
-107
-77
-29
11
29
49
46
42
27
30
64
140
216
133
54
192
264
44
-150
90
79
-177
-200
-280
-229
19
236
118
-32
-102
-366
-514
-122
119
-19
28
84
371
368
119
60
103
69
-23
41
-100
-191
-190
52
382
290
-31
-59
132
60
-47
-124
-147
-252
-309
-95
259
466
84
-231
-205
-235
-197
-164
-155
-182
-145
-60
-39
54
139
162
142
108
69
47
68
82
115
134
88
18
12
-92
-379
-379
97
503
594
588
341
-15
-158
118
235
-82
-238
-448
-555
-458
-152
121
-15
-82
-126
-8
73
-41
-21
-75
-138
-316
-316
-116
-29
60
147
378
637
640
380
17
-77
103
40
-137
-149
-82
-37
-65
-9
-19
-152
-369
-483
-153
124
47
59
175
188
36
-234
-368
8
459
285
236
268
278
299
129
-19
-572
-331
380
439
255
23
-83
-115
-83
-441
-484
-176
-336
-327
-207
-178
-198
-241
-146
0
60
251
634
526
78
-50
49
215
185
-63
-139
-118
-232
-562
-738
-447
-49
80
216
261
198
200
53
114
162
72
144
311
421
258
179
78
-99
-11
97
114
84
38
-15
-20
-32
-81
-132
-202
-258
-297
-235
-165
-228
-258
31
228
149
166
138
170
223
109
24
-13
-118
-142
-59
29
91
64
31
-15
-47
-33
-71
-78
-78
-92
-46
4
21
-15
-22
-39
-212
-445
-616
-367
317
528
470
455
228
20
70
402
236
47
84
-30
23
3
-46
-147
-165
-89
-39
-126
-204
-20
-5
12
44
-3
-92
-262
-247
-152
-170
-283
-198
61
319
560
425
60
-24
-46
-34
-26
-55
-63
-130
-100
-70
-90
-114
-18
100
99
90
38
-38
-98
-1
130
73
0
-9
0
24
27
13
16
12
9
8
14
16
17
19
19
17
12
-31
-153
-143
85
133
60
-4
-201
-319
-183
67
237
336
235
207
180
5
-79
-125
1
4
-34
-50
-107
-70
-178
-161
41
62
36
75
-128
-396
-282
60
305
112
-177
39
218
229
171
28
45
77
51
-133
-299
-570
-536
37
146
1
181
541
524
369
256
-113
-49
127
69
-59
-128
-57
-112
-119
-180
-185
-140
-150
-91
-74
-54
-84
-79
-21
7
25
-35
-148
-104
60
90
299
443
216
53
-67
-75
-85
-213
-282
-42
271
3
-423
-576
-171
413
744
869
402
137
109
-89
-183
-262
-250
-310
-495
-668
-373
105
223
468
572
332
19
7
97
-54
-110
-214
-307
-514
-829
-749
-273
74
279
469
509
680
726
545
224
4
-90
-179
-174
-203
-180
-160
-85
-158
-345
-246
-33
44
-17
-27
135
193
95
130
208
88
-82
67
243
405
463
240
211
84
-57
-61
-292
-544
-554
-503
-437
-268
-126
38
112
112
118
127
137
96
2
-2
118
4
-138
-166
-48
297
359
266
220
116
29
-90
-236
-300
-173
1
169
206
59
6
-54
-162
-329
-393
-200
-92
-150
-231
-290
-311
72
476
607
846
662
409
263
40
-118
-75
90
-185
-170
80
126
94
-103
-242
-387
-490
-449
-330
-257
-112
-59
-53
40
1
-16
-38
-75
-148
-99
134
300
329
287
239
206
224
117
-19
-31
72
85
-12
-72
-203
-110
78
62
-13
60
194
140
-200
-924
-1084
-118
553
413
274
463
654
533
233
-93
-168
-187
-266
-319
-331
-264
-243
-157
-94
-116
-173
-187
-86
-34
-21
19
54
142
211
212
232
263
273
218
132
70
90
112
6
-27
-10
-45
-64
-94
-75
-44
-17
18
37
41
14
1
-13
-33
-62
-85
-85
-89
-91
-89
-84
-80
-72
-61
-52
-41
-24
-8
-17
-22
-8
2
13
9
2
-6
-11
1
8
27
22
25
37
9
-39
-77
-87
-148
-347
-618
-300
451
506
478
769
786
705
486
-26
-466
-608
-609
-392
-143
-177
-225
-220
-104
-8
-45
-39
-65
-2
54
57
57
81
123
76
73
75
97
142
148
118
48
14
34
37
-7
-34
-61
-82
-96
-82
-5
34
67
65
-12
-50
-40
-52
-97
-174
-215
-92
-45
-62
163
350
381
218
-25
-7
43
38
12
-60
-170
-432
-669
-489
66
435
468
292
85
95
135
206
191
114
158
157
96
-16
-109
-287
-448
-416
-342
-190
-45
-31
28
85
90
30
-76
-88
-81
-27
36
49
32
12
55
44
-2
-30
-80
-22
222
321
162
69
11
44
86
-125
-211
-111
-52
-61
-105
57
209
150
118
54
69
47
-16
-10
-87
-69
-70
-131
-292
-308
34
60
-146
-156
-122
-68
-143
13
435
442
452
469
233
225
246
195
108
-5
-29
-190
-324
-249
-133
-328
-412
-161
-58
65
107
5
-155
-290
-142
-52
-62
-17
-29
9
31
-22
-104
-113
-98
-106
-65
-49
22
72
10
-51
-39
134
273
213
-5
-159
71
403
446
427
418
295
89
-186
-246
-186
-145
-226
-532
-234
241
128
81
106
15
54
163
253
165
-7
-80
-251
-220
-104
-28
80
-2
-4
-88
-377
-519
-239
60
282
727
695
412
311
93
-123
-209
-223
-362
-415
-368
-348
-234
-154
0
176
28
-147
-142
-167
-6
111
66
47
-65
-238
-349
-216
-49
80
59
-99
165
503
453
222
268
446
355
92
-122
-179
-535
-572
115
607
727
666
383
82
-160
-191
-130
-266
-226
-231
-349
-380
-333
-44
113
67
165
247
171
105
27
-85
-98
65
151
-11
-172
-221
-242
-273
-239
-188
-62
41
-44
-62
-40
-30
-124
-400
-290
78
64
30
136
107
69
453
746
560
530
362
80
-137
-321
-387
-392
-240
-322
-244
-12
-39
42
72
60
178
244
52
-152
-300
-329
-198
-98
127
333
471
566
454
269
110
29
-61
-163
-137
-125
-130
-150
-161
-140
-123
-66
-35
-16
6
7
-14
-34
-67
-204
-284
-79
60
-27
-3
43
224
292
-206
-518
-41
424
483
340
-6
-34
-63
-233
-130
19
-14
-464
-392
152
224
301
259
465
741
521
183
-201
-326
-407
-520
-566
-571
-491
-380
-234
-151
-58
20
94
132
128
123
117
118
104
116
105
93
85
77
76
80
94
97
108
94
86
87
80
80
69
3
-262
-553
-257
249
239
198
228
220
400
456
31
-216
72
181
154
118
-122
-461
-589
-566
-353
52
46
36
123
162
168
-1
-99
-159
-69
-12
-25
-89
-177
-168
-125
-6
49
99
93
178
296
-107
-348
137
488
453
335
150
-32
-155
-253
-345
-350
-287
-218
-146
-80
-32
21
112
183
146
46
-38
-175
-198
-80
-53
-143
-114
215
345
343
282
158
259
178
46
-21
-59
-71
-118
-113
-145
-120
-99
-149
-238
-183
31
100
70
62
1
-90
36
224
194
-55
-201
-259
-361
-184
-70
209
486
395
523
594
502
251
132
11
-363
-396
-219
-160
-253
-329
-362
-301
-208
-215
-239
-241
-150
-66
-2
49
85
105
137
157
135
118
91
88
77
63
55
60
34
-122
-162
62
145
130
153
104
88
70
77
45
-1
-17
-61
-95
-175
-167
-15
60
63
67
-2
-32
29
70
4
-138
-255
-313
-138
126
174
185
186
94
19
-37
-92
-41
-35
-301
-153
250
109
57
359
477
294
176
128
-16
-6
-44
-170
-312
-563
-882
-973
-407
228
480
582
594
601
511
312
39
-157
-177
-188
-180
-200
-179
-137
-136
-125
-107
-82
-77
-65
-53
-34
-9
10
22
26
27
12
27
47
60
63
29
13
37
53
35
13
-13
-22
81
166
77
-10
-11
29
78
53
-20
-115
-163
-117
-89
-138
-113
-63
-54
6
15
25
57
41
-8
-27
-17
-30
-1
39
-39
-291
-423
-254
-2
306
316
196
365
456
400
173
19
132
276
210
43
-84
-145
-77
-47
-57
-123
-166
-158
-148
-117
-88
-66
-158
-224
-133
-94
-104
-63
-35
-9
9
8
-1
1
1
-12
12
24
35
51
57
65
49
37
31
31
29
4
-26
9
64
72
72
54
18
-41
-65
-16
7
10
11
-14
-26
-1
12
-2
-27
-55
-59
-44
-9
64
119
82
-5
-75
-110
-110
-75
1
78
97
53
-32
-125
-166
-122
-95
-22
279
384
332
314
130
-49
-273
-287
-106
-11
69
75
49
36
53
23
-25
-53
-113
-148
-117
-30
-14
-27
14
9
-15
-37
-49
-24
-14
-16
-11
53
102
65
72
74
23
-2
-17
-1
-15
-39
33
160
271
240
6
-127
-122
-270
-411
-402
-211
-100
-177
-211
-181
138
264
154
190
214
319
424
561
380
-55
-159
-48
-82
-331
-587
-733
-445
90
375
348
140
122
185
213
144
4
-82
-176
-283
-322
-111
31
92
93
-115
-45
250
243
115
13
-57
34
13
-63
-117
-157
-123
-84
-47
-77
-75
-30
2
5
-1
32
68
76
72
84
105
112
94
116
115
138
98
-49
-40
-34
-11
21
-67
-55
29
21
-29
-57
-28
-21
-18
41
26
40
31
-22
-29
-37
-12
-53
-116
-159
-259
-268
42
295
226
180
176
37
-99
203
365
84
-41
-143
-268
-311
-295
-259
-208
-294
-479
-239
200
348
373
244
-14
7
198
192
152
75
20
89
67
70
12
-23
-21
-80
-94
-105
-91
-109
-77
-24
-12
-4
-23
-6
17
41
61
53
31
2
-1
15
32
41
25
-4
-3
6
16
62
52
-24
-30
14
11
-49
-109
-126
-148
-107
-51
-46
121
215
92
-84
-129
-85
-45
184
158
57
131
112
125
79
12
-94
-238
-365
-327
-183
-141
99
456
619
567
466
342
-39
-390
-399
-409
-508
-561
-513
-308
-125
-56
-12
59
118
179
198
147
142
163
133
99
85
85
91
90
63
27
38
51
11
1
11
15
44
24
-27
-41
-25
9
16
-7
-24
-13
-2
-2
-5
6
13
-8
-17
-27
-51
-44
-53
-65
-38
-19
9
51
54
43
16
-67
-106
-105
-187
-289
-384
-403
11
546
596
390
255
375
384
51
-216
-247
-229
-169
15
104
171
221
152
-64
-105
14
-114
-171
-158
-176
-179
-151
-113
-152
-135
-86
-28
-24
-52
-63
-39
-39
-81
2
130
148
97
115
115
154
208
170
104
-8
-36
-36
-74
-102
-104
-78
-40
12
-11
-48
-56
-42
-3
22
22
14
23
16
-2
-36
-3
137
179
67
-90
-77
141
207
306
284
-70
14
132
-82
-105
-117
-170
-216
-148
-35
-130
-176
-155
-138
-211
-499
-569
-102
145
7
83
253
375
421
430
314
142
85
44
17
-34
-64
-75
-65
-53
-41
-9
-12
-5
3
17
4
-39
-51
-27
17
51
57
48
33
17
18
-6
-58
-84
-80
-69
-42
-26
14
85
96
56
1
-52
-67
-24
-46
-103
-46
36
87
128
155
112
75
203
163
-59
-166
-242
-254
-218
-162
-153
-155
-119
-108
-69
-41
-7
1
-64
-137
-107
122
213
-55
-104
136
201
140
308
470
247
190
253
185
84
-69
-145
-166
-117
-143
-164
-123
-75
18
14
-31
-68
-37
-41
-59
-8
-19
-19
1
18
45
41
23
7
47
109
84
95
81
-60
-192
-259
-38
94
19
-14
-130
-166
-164
-98
-45
-20
-27
-109
6
225
234
-5
-129
-74
-2
219
332
195
123
113
82
21
-23
-49
-118
-102
-80
-207
-320
-220
89
206
19
13
102
35
5
56
-42
-214
-170
-74
3
55
6
-17
-21
-17
-39
-120
-115
-57
-2
34
12
34
60
39
67
60
21
16
7
-49
-100
31
178
99
19
157
221
261
574
723
481
139
-198
-362
-334
-281
-283
-354
-339
-258
-180
-139
-123
-74
-14
34
50
47
12
-5
24
54
42
17
8
-11
-1
9
4
47
91
114
201
197
-89
-306
-156
-16
6
12
-41
122
207
157
17
-316
-260
37
263
333
291
260
158
20
-142
-202
-249
-292
-303
-319
-253
-191
-138
-83
-55
-26
22
86
100
34
-1
97
140
117
107
47
90
134
170
196
147
134
85
53
16
-37
-59
-74
-31
0
-60
-49
69
74
51
85
-7
-331
-496
-314
-73
99
202
362
298
254
362
6
-425
-347
-50
118
142
-112
-453
-461
-193
-81
-99
-49
-90
-60
-9
36
63
57
75
58
108
137
118
77
73
90
96
117
87
68
71
68
32
-47
-124
-62
71
67
71
87
49
34
21
7
-38
-44
-10
-9
31
65
41
-2
-23
-21
-68
-131
-143
-118
-80
-48
-37
-89
-140
-110
-7
79
55
-2
-170
-155
306
521
320
132
44
-118
-87
110
37
-27
-27
37
2
-144
-45
-47
-199
-202
-150
-95
-9
-16
-123
-114
-52
-46
-43
-41
14
41
23
24
10
46
49
-61
-72
84
197
198
150
130
152
129
92
52
7
-22
-22
-19
-37
-35
-31
-32
-36
-27
-127
-435
-459
-23
117
151
369
472
582
511
200
-90
-266
-404
-441
-335
-210
-140
-139
-135
-81
90
157
41
36
-7
-86
-155
-132
54
128
248
364
229
10
-62
-6
9
32
-50
-314
-254
225
234
-75
-107
-168
-125
-112
-58
72
-34
-140
-130
-60
-25
6
2
1
24
46
86
87
102
109
77
34
16
1
-1
6
-59
-137
-79
74
165
205
157
127
145
108
89
40
1
-16
-64
-64
-70
-106
-101
-111
-95
-36
-21
-28
-43
-17
24
36
37
-13
-180
-344
-261
51
244
264
283
182
19
-83
-60
-39
2
69
-31
-77
-96
11
58
-19
32
11
-51
-92
21
120
19
-72
-90
-89
-121
-108
-123
-153
-99
-84
-82
-48
1
65
113
128
119
128
133
124
125
120
81
34
42
54
36
-19
-70
-87
-110
-83
10
89
87
55
33
-16
-24
-12
14
22
-1
3
-11
-39
-117
-216
-248
-204
-173
-52
110
127
149
170
284
331
221
109
-139
-204
-41
51
-17
-71
-3
57
111
141
89
-36
-81
-19
-51
-368
-550
-231
-20
-42
-65
-10
216
311
373
379
325
17
-282
-114
-248
-390
-269
-129
-49
-115
-127
-109
-33
7
82
67
-32
-64
-85
-61
-21
63
76
63
92
117
139
147
136
116
131
124
97
79
79
69
29
15
9
0
-23
-54
-19
61
73
26
-31
-130
-136
46
128
99
104
85
82
1
-101
-115
-104
-103
-232
-280
-46
99
70
77
212
306
122
-68
-202
-322
-294
-195
-180
-305
-208
67
104
41
-8
50
145
135
173
225
210
150
32
-67
-120
-157
-180
-160
2
83
99
114
57
50
14
3
-4
-16
-12
-17
-29
-38
-21
-22
-13
-32
-75
-75
9
80
113
132
82
46
20
3
16
37
-15
-89
-65
-52
-110
-94
31
79
41
7
57
95
105
104
-32
-133
-200
-261
-212
-34
-2
-239
-189
117
-31
-114
313
377
304
277
192
168
12
-29
-68
-118
-117
-138
-189
-207
-88
-26
-36
-62
-36
9
17
36
42
30
13
41
32
-21
-4
16
12
67
114
100
80
48
46
86
59
17
46
64
15
-33
-117
-280
-274
-64
22
123
169
-29
-66
89
148
17
-140
-193
-240
-238
-175
-173
-133
-9
95
169
199
210
178
236
352
247
31
-170
-218
-118
-13
-14
-233
-152
162
110
40
85
111
100
25
-62
-158
-189
-178
-150
-79
-19
-27
-8
44
67
52
24
47
22
-16
-85
-234
-201
52
238
281
230
34
-177
-127
87
178
140
45
-16
-17
29
46
-29
-64
-52
-19
-15
-162
-213
57
274
276
293
257
185
117
-27
-183
-284
-336
-301
-251
-236
-213
-235
-210
-117
-19
34
28
113
46
-95
-43
-170
-117
190
247
309
356
321
278
214
142
52
-24
-120
-168
-193
-244
-215
-20
99
101
89
34
22
-125
-308
-357
-150
172
236
194
163
171
163
143
155
226
125
-288
-203
173
93
-12
-106
-238
-238
-154
-118
-175
-207
-152
-64
-36
8
9
-12
-41
12
215
349
358
206
42
-103
-118
125
203
132
135
173
160
-34
-203
-206
-165
-174
-249
-280
-267
-270
-244
-175
-65
16
71
140
140
120
87
74
84
52
58
60
62
71
85
98
74
46
-6
-57
-60
-18
29
32
59
107
90
36
-30
-110
-118
-62
-70
-140
-125
-4
80
72
79
150
215
249
229
170
105
36
-12
-73
-113
-139
-138
-107
-137
-101
-36
-112
-327
-349
-37
114
173
241
186
167
111
34
-79
-143
-172
-241
-195
-144
-118
-72
14
33
-103
-142
-50
41
134
289
339
250
203
183
146
-8
-123
-204
-260
-241
-183
-43
8
24
4
-17
9
36
83
157
279
337
332
275
122
-49
-134
-223
-296
-325
-339
-337
-317
-253
-212
-134
-127
-254
-296
-229
-80
166
355
466
589
500
322
312
291
217
166
153
46
-130
-98
-36
-69
-128
-158
-117
-113
-77
-52
-11
52
17
-32
-74
-80
-49
9
24
9
3
-35
-95
-168
-126
-66
-79
-138
-245
-145
-29
15
141
181
281
384
374
111
-157
8
203
245
169
35
-85
-181
-210
-194
-138
-193
-301
-294
-152
13
160
221
148
132
109
71
108
46
-62
-125
-155
-139
-127
-97
-51
-39
-21
-32
-70
-102
-180
-219
-154
-101
-26
192
376
466
570
574
375
140
-37
-119
-108
-158
-205
-226
-246
-224
-208
-248
-254
-110
-46
-22
55
49
-64
-198
-30
218
318
405
347
219
86
-29
-64
33
101
60
-39
-187
-163
-89
-79
-54
-42
-39
-50
-122
-213
-212
-193
-94
99
254
304
265
342
344
267
183
36
-25
-95
-104
-115
-166
-217
-279
-234
-181
-165
-167
-169
-122
-19
-14
-100
-88
-18
87
232
326
271
263
290
162
24
-153
-281
-321
-160
176
143
-70
-153
-281
-262
-69
19
153
155
-3
143
331
435
343
221
335
270
186
-2
-220
-286
-330
-229
-217
-254
-252
-246
-206
-146
-111
-97
-59
-43
-20
-50
-109
-82
-17
92
236
317
345
288
208
109
47
70
32
-6
-39
-60
-85
-123
-134
-170
-224
-238
-198
-83
135
292
328
282
238
236
114
-38
-100
-113
-201
-318
-175
49
41
-32
68
215
229
166
102
13
-107
-255
-309
-229
-255
-189
44
139
225
357
387
286
180
111
-88
-291
-387
-393
-331
-288
-321
-410
-272
28
122
120
233
485
738
701
540
429
229
70
-79
-177
-220
-204
-177
-235
-311
-425
-472
-318
-94
58
107
17
-84
-42
198
407
412
297
58
-55
-65
-123
-178
-246
-256
-210
-202
-281
-256
-113
-2
69
46
-9
60
57
-127
-165
-42
188
376
368
369
346
302
186
-39
-135
-137
-195
-249
-282
-302
-190
-30
36
118
205
258
246
193
165
54
-24
-55
-87
-117
-160
-145
-139
-117
-113
-150
-249
-493
-548
-220
52
7
-224
-70
625
1001
1081
952
589
367
115
-82
-217
-317
-368
-436
-451
-470
-467
-402
-294
-392
-984
-1469
-844
271
1010
1426
1466
1383
1197
782
311
-65
-334
-468
-518
-554
-475
-371
-269
-193
-178
-134
-118
-146
-125
-44
5
8
2
-12
-67
7
180
150
173
204
138
157
121
42
6
18
5
15
23
-14
-22
-59
-85
-100
-101
-69
-55
-55
-58
-92
-103
-100
-231
-254
-42
163
267
296
307
308
257
143
36
-2
-56
-116
-145
-206
-247
-211
-132
-64
-32
-35
-62
-95
-123
-4
169
190
193
165
84
59
58
55
-12
-62
-61
-69
-94
-106
-108
-147
-72
55
135
163
124
96
100
147
176
179
133
41
-35
-90
-72
-85
-164
-279
-466
-511
-165
322
452
324
213
142
72
-11
44
113
48
-195
-344
-131
0
20
80
140
233
70
-111
-109
-127
-99
-74
-74
-125
-120
-138
-228
-174
-126
-84
-26
-12
22
66
44
9
62
118
153
115
28
28
34
32
49
69
80
42
-31
-57
-9
47
117
125
21
-54
-154
-260
-186
-32
181
348
332
224
64
-27
72
188
113
-17
-90
-124
-210
-196
-2
87
46
41
22
-148
-291
-270
-120
-44
-38
-9
-19
63
164
131
39
-29
-47
17
98
112
107
63
2
2
-21
-19
-45
-137
-164
-163
-157
-118
-62
-46
-30
11
23
11
-4
-4
13
36
30
24
10
4
81
121
113
124
117
67
49
63
17
13
23
-22
-59
-41
-35
-65
-49
-92
-168
-165
-76
24
74
93
89
102
98
95
49
6
22
-1
-34
-42
-46
-47
-36
-44
-89
-135
-140
-99
-115
-59
136
263
290
251
177
102
24
-104
-314
-281
-26
102
201
241
231
178
51
-21
-151
-181
-34
-113
-330
-248
-49
37
98
140
96
-3
-27
-32
-68
-99
-164
-193
-198
-149
-16
121
231
171
136
178
108
93
122
87
19
-62
-126
-145
-176
-162
-97
-96
-77
-29
-13
7
22
37
46
54
59
59
56
34
33
26
17
35
62
32
-51
-108
-226
-341
-213
-9
51
109
130
188
350
357
243
102
110
234
236
139
-4
-82
-125
-146
-153
-183
-143
-92
-84
-115
-173
-188
-145
-75
1
-50
-145
5
186
181
152
155
263
281
123
25
-42
-69
-80
-130
-209
-365
-463
-425
-366
-304
-246
-165
-72
-22
73
118
151
247
253
249
219
166
175
158
134
64
12
49
70
76
51
12
17
22
12
7
-3
21
36
11
1
-19
-32
-37
-56
-77
-87
-61
-21
-2
-72
-146
-94
24
49
-19
-27
62
152
171
154
157
90
9
68
120
58
-32
-16
37
9
15
-35
-147
-227
-124
35
2
19
70
65
-15
-78
-88
-99
-128
-160
-126
-168
-175
-145
-113
-114
-123
-39
-41
-7
54
92
155
169
185
190
194
192
150
112
81
39
-21
-63
-73
-100
-113
-125
-184
-189
-57
76
54
34
115
139
105
79
63
60
41
-51
-87
53
37
-134
-183
-145
-99
-81
-57
-18
29
90
140
146
138
119
73
-32
-120
-129
-120
-46
37
1
-54
6
-46
-136
-104
-12
114
137
96
36
13
-3
-31
-24
-32
-23
-34
-26
7
12
-4
-15
-7
21
51
54
91
125
123
109
37
-32
-55
-32
36
55
40
47
10
-49
-79
-84
-56
-95
-83
-2
-110
-204
-112
-4
68
49
-57
-34
92
97
82
83
22
-82
-130
-105
-125
-45
11
-26
51
148
251
245
168
130
59
19
-3
34
17
-90
-169
-196
-181
-191
-186
-158
-112
-78
-51
-23
-12
42
97
110
98
75
45
47
87
87
60
47
39
7
-7
2
-31
-67
-44
31
81
85
54
18
12
-10
-22
-11
4
3
-22
-69
-70
-36
-29
-23
-30
-63
-62
-94
-176
-84
81
232
226
75
2
-114
-97
47
117
130
43
-93
-52
84
94
90
11
-98
-76
37
-2
-93
-109
-164
-110
16
176
224
185
168
96
44
11
-38
-95
-135
-170
-172
-168
-141
-105
-110
-70
-46
-94
-87
-2
