48
-6
-14
-89
-107
-150
-102
-51
-4
75
110
104
95
102
55
-11
-72
-65
-57
-59
-6
114
216
130
90
152
137
87
104
179
162
55
17
117
121
-67
-233
-384
-453
-335
-119
75
139
54
-127
-241
-277
-301
-294
-144
85
238
302
243
135
14
-60
-35
49
168
306
387
313
222
107
-90
-134
-49
-64
-162
-223
-245
-170
-54
16
59
50
40
121
213
116
-97
-223
-273
-259
-191
-59
39
64
151
202
196
157
108
127
127
52
-11
-24
-35
-18
36
142
195
138
55
-113
-263
-337
-365
-262
-118
9
95
57
-90
-222
-279
-297
-188
61
276
357
350
241
143
110
2
7
87
74
92
57
-64
-165
-232
-217
-216
-239
-191
-109
4
68
100
143
143
118
106
131
138
122
85
46
-26
-105
-141
-138
-12
95
122
119
50
-22
-79
-102
-98
-82
-47
-14
39
102
137
102
67
89
94
51
-26
-67
-70
-50
11
2
-77
-150
-203
-203
-161
-58
59
57
2
-26
-32
6
46
81
104
110
96
70
79
125
170
150
121
146
152
58
-60
-126
-220
-321
-360
-285
-159
-92
-88
-74
-41
-85
-90
-62
-51
-32
16
158
236
203
150
69
9
24
123
243
214
79
-50
-108
-84
-57
36
83
39
80
123
66
31
-17
-158
-213
-223
-194
-84
17
115
167
168
107
-5
-111
-160
-171
-147
-86
-37
5
23
28
48
60
4
-54
-49
-25
22
98
162
171
159
162
170
104
2
-38
-79
-94
-79
-102
-157
-223
-213
-143
-96
-28
49
85
84
82
65
64
78
31
13
103
138
56
-7
-68
-110
-110
-115
-71
-14
52
127
123
65
-9
-114
-183
-203
-136
-1
58
66
41
-10
-46
-64
-22
77
165
135
47
32
24
-37
-53
-36
-33
12
91
175
229
248
212
83
-39
-147
-244
-200
-176
-226
-203
-182
-141
-130
-90
46
145
196
165
114
75
32
20
42
35
-22
-59
-114
-139
-50
69
107
110
122
54
-39
-89
-120
-113
-68
-24
10
39
69
78
23
-52
-106
-94
-29
40
131
157
107
51
34
54
59
85
128
120
42
-20
-79
-167
-185
-95
130
314
283
147
-17
-154
-221
-226
-239
-254
-206
-185
-136
-42
36
105
104
24
-80
-121
-55
-22
-26
19
14
-14
-2
40
90
99
130
170
199
210
183
80
-64
-141
-214
-241
-186
-95
52
238
389
472
479
314
22
-290
-492
-498
-379
-246
-152
-70
-12
25
80
185
210
137
27
-117
-205
-268
-226
-49
123
229
233
203
168
100
10
-1
104
188
185
113
-20
-221
-346
-332
-282
-188
-85
6
53
72
92
62
24
1
-19
-22
4
7
-6
37
82
70
56
18
-6
99
243
276
191
85
-49
-112
-51
-2
-15
-104
-168
-231
-319
-328
-254
-122
10
140
181
212
363
456
308
77
-82
-248
-321
-268
-160
-123
-142
-122
-89
-30
-6
30
73
143
246
295
249
91
-24
-95
-104
-63
-32
16
4
-4
-23
-79
-94
-107
-87
-26
3
16
79
183
271
259
188
94
-77
-219
-195
20
175
197
153
-75
-257
-202
-64
-65
-153
-178
-168
-125
-60
-31
-38
2
50
100
95
-40
-166
-211
-180
-101
11
121
135
75
61
70
80
140
128
46
23
41
60
79
105
113
71
41
16
-36
-35
-39
-42
150
361
311
132
9
-98
-152
-193
-269
-258
-171
-62
-41
-56
-102
-193
-165
14
143
136
77
-104
-151
-54
-31
7
62
80
29
2
-8
77
221
264
248
188
90
-111
-220
-177
-113
-84
-42
64
50
-22
-135
-200
-229
-291
-216
33
323
418
352
142
-85
-213
-312
-334
-220
-105
-61
55
185
299
384
392
302
95
-87
-139
-91
-33
69
256
291
107
-85
-258
-344
-348
-339
-215
-54
26
49
18
-61
-82
36
163
192
168
67
-28
-22
22
113
195
191
160
80
-47
-193
-297
-273
-229
-205
-178
-127
-30
178
380
311
112
-95
-279
-310
-188
-26
137
280
286
205
110
24
-68
-148
-121
-28
62
82
36
-61
-162
-188
-118
11
137
255
294
299
274
144
-62
-258
-334
-311
-235
-178
-160
-120
-25
57
163
309
327
246
101
-94
-284
-360
-289
-194
-92
8
96
118
82
69
79
108
177
284
301
221
118
-40
-212
-326
-338
-286
-128
131
286
248
167
52
-105
-153
-120
-17
172
333
299
143
4
-135
-209
-236
-296
-348
-326
-250
-147
-38
5
-12
3
32
59
124
166
185
167
137
93
69
60
14
-37
-100
-117
-97
-82
-20
100
158
138
99
20
-36
-49
-15
129
266
224
129
51
-175
-332
-264
-128
72
196
128
46
-40
-131
-155
-165
-159
-140
-92
-6
77
82
-22
-142
-122
-13
42
89
134
138
108
37
-52
-71
-46
-15
29
49
17
-52
-121
-101
77
148
72
31
-46
-123
-97
62
208
227
200
146
37
-117
-196
-158
-59
55
86
38
-25
-117
-145
-89
-90
-31
129
213
256
180
-4
-96
-193
-293
-254
-199
-155
-42
80
127
82
41
14
47
113
126
142
131
85
6
-63
-140
-226
-229
-175
-108
4
180
393
523
402
166
-34
-226
-339
-314
-172
-53
-35
-15
19
102
237
251
179
75
-160
-321
-323
-272
-158
-105
-134
-150
-107
27
131
146
144
86
35
85
143
160
137
73
22
1
63
147
171
145
37
-46
-83
-138
-188
-191
-169
-188
-180
-126
-80
-45
-14
40
87
118
157
175
171
165
239
360
352
193
-33
-271
-410
-426
-398
-259
-96
-12
40
-8
-78
-67
-29
30
92
155
160
128
70
-26
-61
-31
39
110
188
198
107
1
-75
-62
-4
29
60
41
-64
-159
-266
-311
-206
-77
17
89
88
46
21
24
104
206
221
150
90
8
-125
-213
-221
-182
-137
-76
-18
14
55
133
253
335
306
231
83
-120
-245
-330
-349
-258
-120
20
120
109
46
68
149
296
398
292
84
-216
-493
-579
-539
-399
-195
-11
59
63
87
117
163
233
278
257
208
153
96
30
-13
21
42
-26
-87
-69
-29
11
99
201
192
100
27
-51
-104
-129
-173
-161
-80
14
83
34
-185
-408
-523
-565
-471
-181
167
374
412
353
229
40
-99
-133
-133
-113
-37
58
100
148
206
252
243
201
177
150
160
143
69
2
-44
-18
65
164
210
146
52
-84
-216
-270
-224
-38
110
140
85
-94
-265
-405
-493
-524
-582
-531
-324
-53
167
278
306
288
275
228
152
64
-5
-29
21
185
287
274
178
22
-77
-79
55
269
385
259
6
-229
-390
-411
-380
-291
-193
-150
-90
-42
19
141
321
393
338
290
85
-186
-377
-438
-312
-190
-79
42
162
256
254
295
302
142
-17
-140
-262
-294
-179
12
153
178
135
41
-100
-172
-242
-233
-27
180
292
295
223
97
-29
-82
-116
-202
-271
-271
-224
-80
78
156
149
120
96
64
30
-51
-64
64
169
180
103
-49
-196
-279
-272
-206
-140
-57
103
253
299
309
277
147
-1
-84
-98
-44
11
52
74
59
28
-37
-101
-148
-179
-173
-117
-60
-68
-77
-100
-108
-50
44
137
150
94
41
-32
-118
-106
-39
-11
0
42
45
2
-23
-41
12
74
95
90
41
6
7
56
122
195
243
223
146
45
-24
-45
-17
-51
-112
-120
-135
-172
-170
-107
-43
20
-4
-56
-105
-171
-173
-123
-42
38
67
32
-6
-32
-62
-30
10
69
147
195
238
211
125
17
-72
-131
-165
-127
-52
-42
-34
49
67
24
51
114
165
181
122
69
1
-82
-108
-85
-57
-37
-25
-49
-52
-38
-42
-44
-2
50
94
166
200
133
62
83
62
-36
-166
-313
-344
-288
-203
-55
104
180
213
187
64
-50
-155
-219
-228
-188
-96
-20
51
101
77
6
-17
-23
21
119
170
150
109
55
-57
-132
-74
62
157
180
127
64
36
16
12
16
61
69
7
-49
-112
-176
-201
-166
-95
57
200
201
136
19
-127
-219
-263
-228
-132
-21
106
188
153
116
133
85
22
-26
-110
-157
-155
-138
-102
-52
22
120
226
266
242
178
114
104
44
-46
-142
-198
-224
-256
-206
-123
-47
43
112
76
-46
-109
-72
-4
53
95
136
195
254
236
120
3
-139
-276
-316
-282
-191
-98
-7
44
51
59
71
98
100
116
127
77
12
-70
-130
-113
-57
-2
31
56
86
92
67
21
-59
-87
-36
-52
-58
28
59
47
60
130
207
144
16
-70
-110
-95
-77
-72
-69
-47
-11
37
74
57
2
-77
-59
9
-2
3
87
236
319
190
32
-105
-271
-336
-241
-112
-112
-138
-173
-188
-117
-39
24
77
92
69
62
45
73
88
46
38
11
-12
21
77
94
97
108
96
46
-1
3
15
50
74
42
8
24
48
21
-16
-16
8
5
11
61
79
65
20
-32
-21
-94
-225
-292
-299
-181
-1
143
188
105
-46
-236
-360
-279
-64
77
131
155
92
-10
-32
-4
14
30
71
122
151
110
55
34
-36
-78
-94
-70
24
65
96
115
108
86
60
78
89
65
9
-36
-57
-61
41
197
253
228
144
-70
-301
-448
-519
-503
-408
-234
-71
42
105
95
95
56
2
46
84
84
112
114
102
128
164
219
271
257
172
47
-82
-241
-370
-396
-335
-205
-60
48
115
112
29
-39
-26
108
319
428
416
312
47
-220
-335
-322
-213
-32
160
296
329
261
87
-150
-286
-325
-309
-236
-173
-119
-94
-77
-47
7
87
154
206
246
206
72
-70
-182
-241
-229
-166
-66
21
88
159
206
212
132
-7
-88
-142
-136
-21
73
102
33
-19
8
36
44
41
45
22
37
65
44
34
4
-20
-6
25
46
54
62
15
-61
-165
-279
-321
-269
-130
47
140
107
52
22
-57
-136
-65
54
109
160
209
201
84
-115
-277
-290
-209
-96
15
99
154
162
169
128
87
100
86
31
-37
-67
-76
-51
-4
12
-14
-46
-39
0
59
103
117
138
191
217
183
76
-61
-195
-307
-340
-309
-288
-246
-128
-18
39
57
56
19
19
90
123
112
90
33
-52
-82
-60
-6
90
169
190
168
163
150
92
9
-86
-171
-115
194
420
384
229
-89
-445
-685
-740
-629
-470
-210
124
369
437
385
220
39
-85
-155
-127
-90
-49
-19
22
95
157
183
164
143
87
27
17
12
-2
-8
-23
-77
-92
-59
-1
110
196
241
215
88
-29
-77
-1
76
34
-32
-80
-107
-145
-230
-287
-266
-285
-273
-188
-89
4
95
245
304
260
118
-30
-92
-136
-93
-30
50
105
98
147
223
231
201
134
-63
-216
-286
-292
-177
-74
-4
73
148
168
158
120
50
-4
21
77
59
51
54
27
7
29
52
19
-16
-107
-243
-316
-326
-265
-173
-7
210
307
355
357
187
-10
-227
-408
-420
-368
-268
-162
-68
67
200
238
195
138
72
38
11
-6
24
105
183
215
229
198
135
29
-111
-210
-248
-228
-162
-70
9
100
179
182
186
144
49
-57
-195
-278
-331
-345
-276
-175
-33
87
130
180
226
205
169
107
39
6
61
173
206
186
99
-31
-126
-178
-190
-191
-183
-201
-211
-161
-51
48
131
220
211
153
67
-67
-160
-203
-155
-59
9
66
99
120
155
185
205
210
99
-68
-180
-224
-187
-102
-15
26
42
47
53
63
56
25
-17
-55
-121
-163
-168
-137
-78
-44
-1
23
37
130
244
294
294
177
35
-40
-150
-224
-213
-183
-147
-60
47
87
60
-27
-109
-113
-44
54
136
152
120
95
43
-9
-50
-87
-67
-8
-14
-84
-92
-22
55
110
234
315
215
67
-89
-189
-251
-265
-168
-99
-57
-34
-27
-31
-46
-21
11
75
130
109
79
64
34
62
109
109
104
49
-43
-120
-137
-94
-56
-17
57
90
45
29
29
-17
-66
-105
-122
-53
74
116
78
20
-65
-112
-131
-104
-33
1
8
23
63
107
118
83
59
48
12
-18
-8
3
11
4
-83
-178
-210
-207
-163
-63
18
60
91
148
264
362
345
234
47
-172
-312
-331
-263
-171
-80
-4
67
144
203
260
253
146
79
14
-72
-97
-116
-92
-51
-86
-153
-166
-158
-153
-75
9
63
97
85
9
-44
-42
-66
-38
12
40
72
59
67
118
144
119
18
-96
-168
-234
-221
-118
-24
-9
-42
-83
-90
-26
2
60
142
167
201
196
180
188
152
99
65
20
29
99
162
176
135
43
-77
-162
-227
-237
-211
-183
-163
-188
-170
-80
27
91
108
139
147
98
56
10
-43
-63
-76
-104
-128
-95
-51
-36
-39
-49
-35
-5
13
24
24
52
80
105
153
158
95
21
6
-13
-55
-51
-1
14
27
174
217
61
-80
-244
-347
-302
-153
44
132
97
17
-36
-16
-21
-30
2
24
29
4
7
24
14
68
168
173
114
105
107
78
-2
-120
-220
-273
-307
-293
-200
-123
-32
83
143
222
376
448
316
148
-42
-271
-403
-399
-278
-146
1
173
318
326
234
123
-38
-154
-231
-198
-106
-51
29
97
153
170
146
70
-27
-96
-103
-26
27
46
22
-37
-77
-105
-128
-133
-31
130
183
156
109
42
23
-60
-167
-189
-200
-190
-140
-20
76
117
116
110
126
152
222
252
214
84
-59
-141
-230
-254
-231
-163
-77
-36
-10
-32
-64
-72
-49
-21
17
85
108
97
101
102
51
-25
-82
-87
-49
-2
88
173
170
142
158
170
163
109
32
-65
-204
-255
-241
-219
-173
-105
-34
-24
-23
12
20
12
34
33
34
73
60
31
21
26
45
25
13
-10
-39
-59
-94
-75
-7
70
117
80
-29
-98
-81
3
127
145
63
-40
-82
-37
-15
-22
-31
-24
27
83
90
33
-3
-23
-92
-85
79
241
236
186
65
-162
-264
-229
-128
-102
-132
-89
-46
-23
6
34
-1
-60
-127
-145
-67
26
164
244
233
150
27
-40
-67
-10
62
77
70
12
-42
-59
-52
5
22
-10
-32
-44
-7
34
27
39
90
149
172
175
121
-14
-145
-207
-180
-161
-165
-99
-14
-1
-31
-66
-104
-115
-63
44
115
162
150
39
-70
-126
-112
-71
16
102
104
77
34
16
15
33
60
51
30
-11
-13
24
71
99
101
88
15
-20
-29
-60
-78
-85
-76
-27
33
22
-37
-122
-206
-217
-143
-55
9
67
106
152
223
216
112
72
119
79
-29
-76
-132
-152
-124
-119
-83
-29
22
33
62
113
41
-81
-87
16
77
64
29
-54
-216
-344
-319
-215
-61
83
133
143
135
123
108
81
56
71
80
74
60
44
75
104
123
147
202
190
51
-67
-188
-257
-238
-208
-113
17
117
141
70
-28
-93
-148
-143
-49
69
123
125
144
115
-5
-143
-175
-173
-147
-43
47
107
158
138
9
-104
-162
-198
-183
-153
-150
-139
-120
-67
30
95
148
211
294
395
363
244
122
-12
-44
-49
-70
-102
-115
-66
-44
-12
-14
-87
-180
-219
-165
-127
-87
-17
-17
17
128
165
106
45
8
-29
-31
34
104
105
58
15
14
87
178
228
190
69
-78
-223
-286
-294
-249
-150
-52
29
65
128
142
112
160
150
57
-30
-123
-191
-194
-133
-143
-171
-51
44
68
84
71
65
83
122
92
5
-37
-51
-89
-108
-92
-24
105
162
120
79
32
-32
-80
-96
-85
-76
-41
7
19
20
4
-23
-21
26
65
71
113
193
287
341
238
60
-111
-287
-335
-204
-48
52
86
4
-84
-119
-158
-185
-191
-140
-72
112
287
241
154
79
18
-2
44
70
-1
-90
-213
-297
-275
-238
-214
-97
60
129
129
152
225
304
385
409
320
144
-45
-205
-319
-358
-332
-220
-74
10
62
135
200
188
158
142
54
-105
-250
-352
-420
-388
-256
-78
120
289
372
354
281
123
-63
-155
-196
-191
-147
-19
97
82
63
44
73
160
195
220
243
156
3
-99
-171
-163
-138
-176
-170
-126
-51
52
106
35
-116
-221
-193
-35
165
306
237
64
-123
-305
-323
-248
-134
-20
97
225
248
189
124
89
97
147
160
74
-69
-146
-95
-39
-18
-60
-81
2
88
170
167
79
-72
-224
-259
-200
-67
102
205
150
55
-13
-59
-93
-120
-185
-238
-149
7
168
220
188
144
73
-29
-133
-88
70
169
162
83
-75
-201
-183
-115
-106
-94
-32
39
135
171
135
77
6
3
52
49
24
56
62
85
52
-151
-336
-392
-315
-191
-44
54
39
22
16
39
90
130
133
179
277
408
498
369
130
-133
-376
-469
-424
-306
-215
-128
-43
16
51
60
81
101
122
124
99
70
80
122
155
128
-1
-128
-192
-264
-292
-136
59
162
226
187
124
75
26
-73
-198
-272
-365
-339
-220
-82
49
112
175
171
178
215
164
89
1
-89
-113
-79
-44
-58
-72
-53
-13
67
102
134
170
129
167
292
373
387
281
14
-296
-486
-540
-498
-372
-221
-123
-54
26
82
112
135
75
-19
-36
15
118
208
213
193
164
73
4
-32
-100
-120
-92
-41
51
101
68
29
-21
-123
-173
-188
-190
-152
-121
-66
4
67
80
44
29
49
92
134
153
186
246
279
227
45
-125
-300
-473
-498
-387
-135
60
135
209
201
145
102
40
-52
-152
-178
-130
-36
80
180
220
177
116
97
73
11
-39
-70
-29
92
152
132
59
-49
-117
-129
-131
-137
-131
-115
-57
14
50
84
72
0
-52
-72
-77
-59
-34
-14
54
145
120
39
-19
-116
-135
31
210
216
144
105
42
-135
-255
-196
-132
-71
-39
-45
-34
-7
12
-17
-47
-46
-99
-151
-121
-80
-27
31
100
165
194
172
173
291
385
305
123
-49
-191
-229
-130
6
71
42
-69
-171
-223
-249
-229
-169
-87
-4
104
168
170
185
171
100
31
-6
-55
-79
-42
39
120
150
135
47
-86
-145
-170
-218
-229
-232
-210
-150
-60
89
177
148
96
65
70
63
14
4
22
-21
-47
77
198
147
50
-21
-75
-109
-98
-77
-80
-50
-70
-77
-44
-19
46
138
198
163
93
24
-13
-19
16
115
134
86
34
-56
-78
-24
30
52
-7
-13
26
35
82
47
-84
-268
-451
-456
-292
-49
145
169
126
37
-75
-96
-125
-136
-82
-24
22
87
182
194
186
218
180
54
-99
-211
-262
-221
-79
100
238
287
254
155
87
17
-24
2
-23
-19
39
99
169
241
236
119
-62
-211
-300
-385
-321
-168
-80
9
113
183
157
97
81
115
92
-43
-182
-286
-304
-233
-121
-32
109
259
143
-90
-252
-371
-340
-158
34
165
229
180
73
34
62
122
140
144
125
99
119
128
111
77
18
-26
-12
-4
-25
-64
-115
-134
-104
-65
-52
-64
-69
-38
23
73
72
82
51
-24
-52
-60
-62
-84
-85
4
134
183
168
157
87
16
20
66
69
-36
-201
-297
-306
-248
-181
-150
-94
-19
106
317
412
237
-24
-249
-318
-190
23
259
327
142
-62
-163
-186
-140
-75
26
80
80
79
67
43
6
-33
-48
-31
-29
-14
11
26
62
88
79
135
282
353
315
191
31
-50
-133
-252
-311
-325
-312
-274
-163
-37
18
79
82
12
-51
-122
-183
-186
-112
-34
17
43
90
162
153
95
68
85
118
133
153
183
142
30
19
39
-41
-57
-52
-107
-141
-152
-85
86
317
418
296
67
-202
-360
-354
-176
-28
-87
-137
-130
-89
-54
-19
73
120
65
-39
-65
-14
-49
-24
40
-2
-43
-116
-127
-64
-31
14
88
114
88
89
100
82
40
36
73
168
271
220
141
88
65
169
309
355
212
-39
-291
-487
-519
-420
-331
-285
-199
-119
-76
-41
-27
-22
25
109
137
135
129
86
79
150
246
231
68
-106
-286
-337
-220
-84
60
123
147
149
106
42
-19
-1
57
6
-85
-94
-170
-173
-49
31
97
160
148
10
-83
-61
-58
-74
-37
29
64
118
143
92
12
-64
-69
-79
-95
-65
39
160
144
113
84
29
2
23
94
37
-92
-250
-334
-251
-109
7
16
-16
-13
39
47
21
-8
24
186
291
306
239
86
-100
-249
-289
-256
-148
-51
-17
20
71
70
36
52
35
20
35
16
-12
-54
-62
-25
44
104
103
101
70
7
-62
-81
-51
-25
77
170
155
89
-7
-99
-166
-196
-165
-95
-62
-39
19
89
107
44
1
-64
-137
-137
-77
21
104
166
162
140
185
165
107
49
-82
-120
-115
-139
-69
-43
-72
-92
-140
-166
-173
-146
-133
-115
-33
81
191
240
235
155
36
-61
-115
-97
-62
7
69
58
9
-43
-39
-6
48
112
144
148
125
100
31
-43
-69
-60
-59
-92
-70
-37
-23
12
61
128
185
167
67
-41
-150
-234
-251
-158
30
154
165
107
27
-24
-49
-29
44
47
-27
-90
-104
-77
-88
-85
-67
-67
-40
-16
2
37
56
60
54
16
-19
-5
34
59
79
118
157
147
97
24
-48
-64
-42
24
223
340
221
69
-122
-331
-427
-438
-384
-304
-248
-219
-148
-27
46
73
105
118
109
118
118
128
147
155
163
169
203
196
138
47
-37
-6
124
215
109
-63
-227
-402
-445
-368
-186
-39
38
82
62
61
54
42
47
62
57
37
38
44
37
11
-24
-22
33
40
-2
-27
-68
-92
-65
-37
9
57
65
70
74
84
123
141
127
95
47
-6
-46
-1
83
82
54
31
44
92
75
4
-147
-318
-447
-466
-295
-123
-73
-80
-127
-146
-126
-72
84
261
374
349
232
122
-11
-122
-152
-92
-11
46
96
150
156
136
121
60
3
-51
-94
-87
-29
46
47
30
26
-17
-89
-116
-110
-115
-105
-91
-69
-32
26
82
88
60
60
76
42
16
13
6
62
130
153
131
84
19
-87
-148
-179
-127
-64
-45
-2
-16
2
-7
-66
-140
-261
-295
-190
-50
33
173
279
171
48
32
17
-41
-87
-47
4
21
55
82
92
93
118
144
167
170
78
-33
-106
-118
-115
-99
-84
-78
-79
-77
-35
-42
-69
-49
19
78
123
153
97
33
-13
-28
2
21
13
-6
-2
37
113
116
31
-65
-149
-105
92
244
205
40
-162
-351
-392
-270
-107
-12
13
10
26
42
46
15
-55
-88
-100
-38
54
141
185
180
231
256
200
81
-57
-173
-220
-169
-67
9
62
119
92
27
-45
-138
-203
-167
-80
-20
44
58
46
31
23
37
64
80
69
75
83
52
1
-50
-87
-95
-18
133
235
227
146
-19
-169
-203
-209
-198
-165
-100
-29
4
17
-19
-84
-110
-48
86
213
251
210
165
88
21
26
76
101
35
-40
-133
-294
-416
-422
-291
-128
-32
-5
-1
31
118
216
229
183
95
-16
-79
-52
46
133
173
163
108
54
14
-15
-5
16
23
18
7
-2
-15
-42
-87
-113
-121
-73
16
93
156
104
-27
-132
-186
-183
-150
-76
15
119
204
195
112
-8
-96
-135
-144
-124
-108
-69
-15
14
60
158
226
212
158
51
-89
-210
-268
-239
-169
-97
-27
45
113
110
83
113
114
87
57
22
-5
-11
1
-4
1
12
7
-4
-1
-6
-6
19
18
14
2
-6
7
-10
-21
-20
-11
0
-2
5
1
-7
-20
-21
7
25
31
29
27
12
-43
-96
-127
-138
-115
-60
-17
16
75
120
133
119
74
25
-24
-64
-90
-89
-49
24
74
83
72
19
-21
-34
-36
-30
-26
-8
36
99
99
69
70
22
-49
-97
-114
-34
72
103
80
-14
-185
-325
-346
-256
-123
-20
24
51
100
143
149
100
50
21
0
-3
45
104
94
54
16
30
72
108
163
127
17
-63
-112
-112
-62
-51
-81
-66
-16
14
28
84
124
92
45
17
-41
-134
-173
-136
-44
-3
17
53
15
-41
-79
-89
-36
6
46
132
196
204
168
70
-74
-166
-195
-186
-136
-82
-79
-90
-67
-31
38
128
161
118
60
13
-6
-2
36
78
50
52
92
83
39
-19
-50
-72
-90
-85
-73
-77
-54
-19
16
54
65
72
71
44
-9
-59
-87
-31
91
104
73
38
-48
-107
-133
-115
-89
-74
-67
-88
-102
-85
-17
92
241
352
349
261
116
-60
-178
-251
-261
-209
-193
-123
-37
37
87
65
45
16
10
38
64
77
62
42
53
95
87
22
-34
-34
-9
27
68
29
-55
-81
-82
-79
-48
-27
-24
-40
-61
-52
-21
1
-1
-3
5
12
4
-24
-36
-6
14
38
69
94
118
109
89
57
9
-31
-31
-22
-56
-52
9
90
178
217
196
87
-36
-42
-49
-131
-169
-186
-236
-265
-277
-251
-183
-95
-9
35
36
27
57
72
71
105
115
123
135
153
189
155
71
21
-22
-49
-46
-37
-11
-25
-71
-85
-94
-65
4
78
138
163
107
26
-41
-142
-214
-248
-237
-120
14
95
140
133
84
35
-7
0
72
168
198
153
80
-11
-77
-164
-228
-211
-136
-21
84
191
221
153
42
-82
-179
-223
-196
-135
-39
48
63
42
18
-1
1
19
26
-6
-9
62
110
82
36
16
25
74
119
93
46
-13
-122
-183
-160
-112
-39
11
52
81
65
34
-5
-11
-52
-97
-70
-27
26
68
128
123
29
-39
-79
-36
80
196
204
113
1
-145
-240
-257
-209
-102
-26
13
38
75
122
88
32
-11
-30
-16
-12
-12
-42
-49
-69
-103
-99
-69
-41
12
99
92
56
18
-22
-19
-9
12
39
72
94
107
116
99
118
224
271
208
118
-16
-170
-269
-274
-220
-153
-86
-69
-52
-55
-79
-58
-63
-51
-12
2
17
44
85
100
74
47
35
23
29
12
-3
-4
2
25
16
11
-9
-31
-35
-46
-55
-66
-41
-12
-3
-4
-1
-26
-75
-92
-79
-45
29
132
186
194
179
117
43
12
22
16
26
59
89
70
-25
-92
-153
-209
-221
-199
-136
-74
-12
49
75
63
51
38
18
8
10
55
94
103
111
85
50
28
-27
-75
-90
-115
-163
-168
-163
-150
-64
-9
-2
-34
-44
-4
39
79
85
67
29
-9
-24
37
139
175
162
122
44
-21
-69
-71
-12
19
22
-18
6
112
122
89
58
-13
-54
-67
-26
51
31
1
16
-7
-35
-41
-68
-97
-111
-135
-147
-144
-94
-44
-31
-16
-17
-1
-1
-7
34
63
37
-14
-37
-13
11
27
64
61
62
79
72
93
94
87
96
105
121
98
29
-76
-181
-200
-136
-64
4
64
115
143
148
100
-19
-122
-165
-159
-147
-91
-5
41
45
6
-58
-132
-129
-69
-23
23
36
37
29
9
10
12
11
51
86
97
82
51
50
14
-17
-24
-33
8
85
130
116
79
6
-34
-11
-37
-98
-73
6
43
47
-14
-109
-196
-254
-238
-155
-32
50
92
100
70
33
1
6
24
29
46
57
21
1
-3
-32
-41
-21
-6
-7
-16
-9
46
90
105
137
107
31
2
-17
-46
-37
-20
-25
-23
17
72
79
47
40
41
-34
-97
-130
-210
-269
-286
-233
-110
11
109
166
192
205
175
138
121
57
-18
-77
-78
8
76
109
150
152
74
-43
-82
-57
-13
86
102
33
-68
-184
-246
-287
-253
-160
-98
-21
79
176
261
216
101
29
-70
-136
-148
-125
-100
-82
3
94
136
136
99
41
-6
-11
-10
-3
16
21
19
17
17
2
-32
-81
-127
-79
19
27
13
21
-17
-51
-46
-26
-24
-17
-12
0
51
80
85
105
123
92
64
49
4
-21
-27
-44
-45
-21
-14
-51
-89
-92
-55
-47
-51
-66
-106
-88
-21
56
86
69
58
59
70
97
109
94
36
-44
-99
-115
-82
-34
14
51
46
30
39
50
42
32
2
-22
-27
-27
-14
-5
-12
-65
-104
-100
-67
13
73
71
37
6
-31
-82
-82
-6
75
97
89
75
42
59
122
90
-10
-102
-185
-177
-138
-128
-103
-70
-36
19
63
51
33
14
-26
-51
-57
-13
37
68
77
49
90
144
153
137
85
21
-57
-117
-127
-97
-70
-23
33
41
67
92
59
49
67
36
-39
-99
-129
-125
-112
-50
57
164
254
218
107
11
-113
-171
-145
-69
-14
-20
19
26
39
46
-54
-173
-282
-352
-335
-205
-72
36
125
147
144
133
123
98
97
111
114
93
32
-4
-33
-39
11
67
130
172
143
77
17
23
54
24
-16
-12
33
69
100
63
-44
-98
-167
-242
-241
-203
-173
-127
-25
55
79
85
52
6
-7
-3
-35
-92
-100
-73
-31
15
59
77
48
41
96
118
90
97
59
-28
-92
-114
-90
-65
-30
-9
17
42
47
61
44
23
14
8
15
40
49
6
-20
-36
-100
-162
-168
-125
-39
56
81
34
-5
-65
-88
-27
74
191
203
170
120
36
-28
-61
-17
43
28
2
9
-22
-24
28
99
153
90
-22
-168
-320
-393
-350
-205
-79
19
75
94
108
99
71
62
114
138
111
73
19
-22
-8
24
37
22
-11
12
29
34
87
99
121
107
-8
-101
-163
-179
-147
-82
-7
13
3
-8
-34
-92
-109
-75
-77
-60
11
103
155
193
282
315
218
60
-70
-175
-246
-287
-269
-192
-123
-79
-69
-34
-10
0
49
69
77
81
55
51
100
143
168
163
74
-34
-114
-147
-113
-67
-28
19
70
127
132
84
59
27
-16
-30
-29
-17
-12
-17
-37
-76
-112
-105
-73
-52
-19
12
29
31
19
26
14
-2
-20
-9
62
87
82
71
54
34
24
59
61
34
-24
-70
-29
-11
12
46
-19
-143
-272
-329
-294
-206
-60
49
75
64
51
92
167
199
181
130
47
-34
-81
-88
-54
-4
29
49
60
31
29
59
105
135
79
22
-17
-77
-138
-167
-153
-122
-70
-14
44
84
85
61
39
27
-11
-22
-16
-4
11
-17
-41
-39
-27
-36
-23
-14
-43
-66
-82
-30
24
55
97
107
121
109
51
2
-8
-16
2
46
53
52
78
85
26
-68
-145
-142
-125
-130
-78
-45
-32
-24
-9
29
59
90
102
87
34
-12
-23
16
69
89
77
13
-46
-84
-106
-89
-55
-16
14
18
-7
-29
-42
-42
-19
34
104
128
91
48
9
-53
-110
-123
-95
-68
-54
-41
-29
-1
29
42
35
21
18
29
47
55
72
74
65
72
67
42
19
6
-49
-111
-123
-110
-82
-29
70
121
78
32
-9
-82
-115
-89
-78
-55
-54
-52
-19
-31
-26
-12
-14
-31
-36
9
37
60
63
47
41
27
1
-7
8
29
67
74
80
77
66
62
39
22
-8
-26
-16
3
-9
-33
-55
-79
-65
-24
21
39
40
8
-27
-34
-47
-21
70
145
150
128
47
-59
-107
-117
-126
-163
-184
-158
-88
1
40
26
-24
-38
-2
14
59
91
49
42
88
105
72
52
44
22
10
-1
-7
-24
-31
-57
-62
-16
-4
-16
-51
-63
-45
-7
29
19
-10
-11
27
46
59
107
139
100
43
-42
-120
-108
-87
-54
-14
19
73
103
92
51
-22
-95
-129
-140
-130
-107
-92
-65
-39
-7
52
119
153
130
82
35
-9
-6
83
169
160
74
-8
-78
-123
-120
-92
-65
-102
-135
-118
-73
-6
28
41
40
41
46
59
67
51
46
62
81
41
-24
-41
-16
45
110
131
77
19
-45
-107
-129
-125
-39
27
23
-2
-79
-153
-144
-65
-17
-2
14
41
33
9
20
46
99
94
40
-39
-143
-220
-236
-182
-97
30
171
263
258
183
90
-7
-75
-97
-44
7
36
63
30
-12
-12
-3
-9
-2
23
46
51
49
70
61
22
3
-9
7
33
52
85
73
15
-42
-99
-163
-193
-150
-84
-16
0
-28
-85
-156
-130
-87
-79
-67
-59
-47
-2
92
194
231
162
92
27
-63
-59
4
21
24
39
44
72
100
102
85
48
22
-39
-64
-39
-29
-37
-52
-46
-41
-6
46
63
24
-25
-49
-72
-66
-31
-8
-14
-11
-17
-20
-6
6
12
8
14
4
9
24
28
25
-3
-4
11
-3
-29
-32
8
55
40
-2
-16
-20
-4
0
-26
-19
35
76
66
17
17
27
-1
19
27
13
7
-57
-112
-150
-162
-115
-53
-10
7
62
115
148
92
-34
-90
-135
-138
-95
-65
-30
4
32
34
46
75
86
68
42
27
-1
-37
-38
-11
21
41
41
29
23
39
41
19
5
-17
-36
-37
-26
-7
7
16
26
30
27
28
37
49
60
55
31
-2
-27
-54
-67
-54
-43
-30
-24
-29
-20
-15
-14
-9
-11
-7
19
50
23
-23
-17
-15
-17
-30
-47
-39
-34
-16
2
16
22
19
39
61
87
136
216
232
181
231
280
191
32
-209
-413
-526
-565
-483
-372
-230
-84
19
79
95
120
140
161
165
156
142
115
74
37
25
17
38
76
91
52
-2
0
27
44
16
-1
1
-15
-3
-7
-26
-39
-49
-60
-55
-32
-22
-5
-1
-11
-11
-7
-4
-7
-11
-5
3
4
-1
-3
-7
-15
-17
-7
2
13
33
57
43
6
-26
-69
-97
-94
-65
-31
-8
2
18
39
37
16
-15
-27
-24
-13
-1
2
16
17
23
39
45
45
46
59
60
58
82
156
162
-1
-106
-123
-145
-180
-216
-157
-70
-23
13
20
-11
-27
-11
18
52
43
29
46
59
51
41
47
52
47
37
21
9
-6
-19
-19
-17
-17
-7
23
52
72
60
27
6
-14
-23
-34
-46
-47
-42
-26
-1
39
57
39
36
22
-6
-23
-49
-64
-80
-86
-60
-44
-30
-24
-16
13
29
25
13
-11
-29
-29
-17
1
7
9
9
1
-4
0
15
22
12
13
18
7
2
16
27
29
-1
-34
-47
-51
-31
-12
8
27
31
16
9
13
2
-2
-5
-6
-9
-5
6
17
26
11
12
19
11
16
28
32
36
41
57
80
88
43
-51
-125
-166
-146
-77
-27
6
48
62
36
33
14
-2
13
-1
-2
-9
-28
-27
-26
-6
14
18
33
32
17
4
-8
-2
10
9
13
36
92
143
145
127
115
32
-107
-198
-265
-281
-242
-167
-60
-6
1
-11
-7
34
63
66
55
51
58
76
91
60
27
12
5
-12
-39
-29
-14
2
34
36
18
19
10
-1
-8
-16
-12
-2
-3
-17
-12
3
0
4
42
85
74
34
12
-4
-19
-17
-5
-20
-52
-74
-92
-83
-44
1
25
28
16
-25
-21
9
14
11
-22
-51
-36
-7
9
17
16
12
26
7
-19
-20
-19
-14
0
7
2
1
-6
-7
6
29
38
29
24
22
31
27
16
2
-11
-7
-6
-11
-10
-3
9
6
5
7
7
12
10
7
6
8
7
2
4
5
0
-3
-12
-19
-10
-9
-11
-9
-24
-54
-79
-70
-39
-4
22
29
37
25
24
31
10
0
-2
8
29
31
29
50
90
124
95
14
-54
-107
-125
-133
-137
-110
-80
-53
-7
39
49
44
24
-1
-17
-16
-2
16
37
43
49
46
39
31
14
7
9
10
4
0
-2
-7
-13
-13
-16
-19
-9
-11
-17
-7
6
6
-1
14
30
31
6
-6
12
17
14
-12
-36
-46
-40
-19
-14
-12
-2
15
21
22
23
19
7
-3
18
9
-49
-96
-106
-64
-6
8
11
29
44
55
58
48
19
-22
-41
-41
-40
-36
-44
-38
-15
22
50
42
21
1
6
27
36
42
45
59
57
27
7
-12
-24
-22
-7
-2
-17
-29
-34
-39
-32
-12
4
21
31
48
58
36
7
-19
-42
-47
-41
-27
-12
-2
6
9
4
4
7
4
2
7
9
5
21
44
46
58
47
-7
-45
-81
-102
-102
-93
-52
-6
32
56
36
-6
-19
-28
-28
-16
-23
-37
-47
-51
-43
-19
-1
32
95
109
66
34
11
2
-7
-17
-9
1
12
22
24
18
12
4
16
21
11
-1
-21
-21
-3
21
31
12
-7
-12
-6
-2
-3
1
-2
-6
14
28
19
17
2
-16
-2
2
9
29
45
26
-27
-54
-64
-63
-54
-48
-27
-9
-22
-32
-44
-67
-61
-42
-24
-8
2
24
46
55
76
90
59
26
-1
-25
-36
-46
-32
-22
-27
-1
27
63
118
122
93
70
36
-12
-43
-70
-85
-100
-112
-80
-41
-15
5
22
31
32
30
22
21
16
6
-2
-2
-1
-1
-1
-3
2
6
7
6
2
3
-1
-4
-4
-6
-6
-7
-4
3
8
9
24
53
61
37
6
-14
-31
-42
-42
-33
-34
-47
-60
-64
-33
-4
10
19
24
26
26
21
14
11
16
24
44
62
59
29
-12
-39
-51
-35
-11
-10
-24
-36
-21
4
8
2
5
11
6
11
12
10
11
11
21
31
32
15
-11
-28
-40
-36
-15
26
61
67
46
9
-41
-77
-89
-82
-44
-12
14
47
60
31
-14
-40
-38
-16
-7
-17
-20
-21
-11
3
12
20
31
31
21
16
10
5
-1
-2
-5
-4
-2
-6
-6
-6
-5
-3
-4
-4
-2
2
4
4
5
6
2
4
5
6
7
2
-5
-12
-19
-22
-12
-4
2
6
-2
2
16
25
28
27
20
4
-16
-36
-55
-52
-23
0
10
28
20
-14
-46
-66
-50
-17
12
25
26
34
31
27
24
19
15
6
3
1
-2
-6
-5
-10
-15
-11
-2
4
4
7
7
7
11
14
13
7
9
4
-6
-10
1
9
-6
-20
-34
-46
-39
-19
19
46
44
37
32
40
34
7
-21
-52
-62
-67
-66
-42
-17
0
15
28
34
35
39
39
57
90
99
75
44
15
-44
-98
-114
-123
-120
-130
-131
-97
-61
-29
6
45
70
79
84
89
84
67
54
43
17
-4
-12
-10
-8
-7
-4
-5
-2
-2
-1
1
-4
-5
-6
-8
-7
-3
-4
1
10
12
14
2
-12
-25
-35
-28
-19
-7
4
6
7
10
12
13
14
12
16
24
31
39
27
9
0
-11
-34
-70
-92
-92
-75
-51
-34
-2
17
5
2
-16
-33
-34
-23
-4
-6
1
21
29
40
47
40
28
9
5
14
26
41
46
45
47
62
72
55
32
23
13
1
5
13
13
19
32
20
-26
-79
-109
-110
-100
-72
-46
-24
-4
11
28
31
29
20
6
0
-2
-6
-9
-7
-3
-2
1
3
1
0
-2
-2
-3
-3
-4
0
13
31
41
47
49
47
46
30
-14
-60
-69
-85
-110
-87
-43
5
14
-26
-46
-65
-77
-56
-29
14
35
41
55
56
55
35
11
-1
2
19
21
21
37
52
51
49
48
29
3
-14
-27
-34
-35
-39
-34
-14
-2
12
28
27
19
10
-1
-7
-13
-18
-18
-16
-16
-13
-12
-11
-11
-10
-2
7
16
21
14
4
-2
-6
5
30
51
52
52
35
5
-22
-62
-88
-101
-90
-69
-59
-42
-39
-26
14
26
6
2
14
22
21
38
59
54
45
3
-41
-31
4
16
7
19
34
54
55
27
18
16
14
14
4
0
-1
-8
-9
-22
-31
-30
-27
-9
13
23
29
32
16
-9
-35
-53
-49
-50
-44
-35
-26
-10
5
19
18
7
4
9
12
21
21
18
34
49
67
84
68
11
-42
-75
-89
-82
-66
-55
-74
-90
-71
-43
-6
41
65
66
46
26
14
5
-3
-4
3
3
10
16
22
31
32
32
24
22
19
2
-12
-26
-27
-19
-9
1
11
12
15
11
4
6
11
17
19
1
-14
-8
-6
-12
-19
-15
1
12
10
-11
-22
-21
-12
-9
-17
-24
-15
-4
-2
10
-1
-11
-4
-4
0
9
10
-1
-6
-12
-11
-1
5
5
4
2
-5
-9
-13
-9
1
10
21
22
16
11
7
2
-6
-13
-19
-18
-10
2
9
16
15
6
-2
-11
-16
-11
2
7
14
21
27
20
-6
-7
12
22
-8
-42
-45
-63
-82
-74
-52
-30
-3
52
104
123
109
73
32
-28
-56
-55
-79
-89
-92
-72
-26
18
51
50
51
51
49
57
62
59
38
12
2
-2
1
1
-16
-27
-37
-55
-65
-67
-63
-58
-38
-5
19
32
36
31
18
7
9
23
36
52
57
27
-2
-32
-60
-49
-7
4
-12
18
27
31
74
60
12
-32
-60
-75
-82
-49
-4
5
-10
-31
-59
-65
-37
-6
14
27
37
47
55
49
51
49
40
39
15
-1
-1
-2
1
-7
2
18
11
-7
-31
-46
-47
-41
-34
-24
-13
-7
0
6
19
24
6
-10
-12
-4
2
-1
2
10
11
14
23
17
-1
-6
-12
-15
1
15
21
22
21
22
15
-2
-16
-28
-34
-25
-19
-12
15
43
42
19
-1
-27
-52
-70
-82
-68
-33
-2
12
9
-5
-41
-83
-85
-60
-21
20
39
52
67
62
59
51
33
26
11
-2
4
9
27
42
49
57
53
39
25
14
7
12
3
-9
-10
-22
-24
-19
-8
6
7
1
-7
-7
2
1
-12
-15
-21
-40
-52
-43
-22
6
24
16
7
1
-23
-50
-77
-77
-54
-37
-32
-32
-5
34
48
42
25
15
22
30
34
24
14
11
14
17
9
7
3
1
1
-1
-1
-5
-5
-6
4
17
33
48
44
7
-39
-56
-57
-37
-6
12
16
-11
-49
-57
-57
-55
-41
-17
15
32
27
19
15
22
32
49
57
47
22
7
19
27
2
-34
-57
-93
-105
-79
-35
11
39
54
48
42
31
18
17
15
6
-6
-15
-19
-16
-14
-10
-2
1
4
13
21
34
59
60
23
-16
-48
-54
-29
-14
-7
-24
-40
-29
-19
3
26
67
97
80
40
-11
-54
-71
-72
-63
-52
-27
15
35
10
-44
-95
-101
-51
7
32
75
95
79
53
19
4
2
10
11
-3
-8
-18
-19
-1
13
17
11
-4
-26
-51
-55
-40
-4
37
60
63
54
34
8
-22
-46
-40
-22
-11
-4
1
7
8
4
-2
-2
-4
-1
5
9
17
12
1
-9
-18
-22
-21
-12
7
18
14
23
42
42
31
9
-19
-36
-23
-5
-16
-39
-50
-59
-38
4
24
40
78
117
85
21
-25
-75
-85
-86
-67
-52
-74
-69
-46
-24
-8
14
41
62
74
70
70
58
36
22
17
4
-12
-25
-29
-18
-12
-3
0
-2
0
-1
1
-4
-6
-11
-12
-9
-6
1
11
14
-6
-5
17
13
1
6
13
47
73
69
57
-3
-75
-117
-135
-123
-95
-70
-34
2
19
32
34
37
51
68
74
68
65
44
24
0
-62
-110
-121
-113
-51
28
51
48
32
27
49
54
47
22
-16
-17
-3
-5
-7
-15
-17
2
17
16
12
4
-8
-14
-17
-9
-7
-10
-7
-5
-4
-2
2
4
3
1
2
-2
-3
-2
-7
-11
-12
-9
-7
-4
-3
1
7
6
10
14
11
7
0
-3
-3
-6
-8
-7
-6
-5
-1
-2
-5
-2
1
9
11
7
4
7
15
19
19
10
6
2
-2
12
33
28
-6
-46
-72
-81
-70
-40
-15
-3
3
16
49
70
62
57
43
12
-14
-38
-54
-54
-39
-21
-8
-9
-9
-9
-4
2
4
6
2
6
6
6
14
17
16
6
17
31
35
40
19
-16
-45
-76
-76
-40
-13
9
34
43
34
6
-6
2
17
28
27
12
-6
-7
15
41
47
46
34
-10
-57
-84
-78
-51
-52
-52
-32
-21
-5
7
12
3
-11
-8
-16
-39
-51
-34
-17
-4
2
-3
0
2
17
29
32
41
39
39
42
34
32
32
29
30
32
31
27
26
23
20
15
12
4
-1
7
12
11
1
-14
-33
-54
-62
-57
-47
-32
-11
4
-1
-7
-9
-7
-6
-6
-9
-9
-7
-3
4
2
-1
3
5
2
1
7
10
9
5
-2
-14
-27
-12
9
4
-1
-3
-1
1
5
14
15
11
-1
-11
-16
-19
-18
-17
-14
-4
21
51
54
32
7
-24
-47
-41
-23
-12
-1
5
-2
-8
-3
6
9
9
9
19
24
11
-14
-35
-34
-18
-4
1
5
7
5
9
12
8
6
0
4
7
3
6
8
6
3
-1
-4
-2
2
2
0
-4
-10
-16
-15
-12
-10
3
8
7
12
12
12
6
1
1
-4
-3
-5
-8
-6
-4
-4
-3
-7
-7
-2
-2
4
11
5
0
-1
1
1
0
-2
-2
-2
-2
-3
-4
-4
-5
-6
-8
-4
-7
-7
-3
-1
8
16
19
17
22
10
-12
-16
-10
-1
1
-2
-2
-5
-5
-6
-1
4
6
6
1
1
3
2
1
1
-4
-6
-5
-6
-6
-7
-7
-6
-6
-5
-7
-7
0
5
6
8
11
11
7
-1
-1
1
-2
-3
-5
-7
-6
-3
-1
4
4
-1
1
9
10
5
4
3
1
-3
-2
-6
-7
-1
-5
-8
-9
-7
-5
-6
-5
0
-1
-1
3
4
6
7
1
-7
-5
0
-2
-2
-4
-6
-4
-1
-2
-5
-5
1
4
6
6
2
3
4
3
2
2
-1
-5
-6
-7
-6
-4
-3
-5
-1
2
1
3
6
5
7
9
6
2
0
-2
-4
-6
-6
-7
-7
-1
-1
-5
-4
-1
6
4
2
6
-2
0
6
6
5
-4
-3
-3
-4
-5
-7
-5
-6
-4
-3
-1
3
2
3
3
2
4
4
5
3
1
-1
-5
-4
-4
-4
-4
-4
-2
-1
1
-1
2
4
2
2
2
3
3
1
-1
-4
-6
-5
-6
-7
-5
-6
-4
-1
-3
-2
2
4
3
4
6
3
1
1
0
-1
-2
-4
-4
-1
1
2
2
1
1
-1
1
4
4
4
1
-1
1
-2
-1
1
-2
-5
-4
-7
-11
-9
-9
-7
-4
-2
1
7
9
8
7
7
6
1
-1
-2
-6
-6
-8
-6
-5
-4
-4
-6
0
2
4
5
2
1
3
2
3
1
-5
-6
-7
-6
-6
-7
-5
-5
-2
-1
1
1
1
4
2
0
1
1
0
0
-1
-5
-3
-1
-2
1
2
4
3
4
3
1
2
1
2
2
-2
-4
-7
-9
-9
-12
-16
-19
-21
-21
-22
-22
-20
-15
-13
-12
-9
-7
-7
1
10
17
23
22
21
24
29
29
27
26
24
24
21
19
20
19
17
17
17
14
11
8
2
1
-1
-6
-9
-12
-16
-17
-17
-19
-19
-14
-14
-16
-12
-10
-11
-14
-8
-7
-6
-6
-9
-7
-7
-7
-6
-7
-6
-8
-7
-6
-4
-3
-1
2
3
5
4
4
4
2
2
1
1
-2
-2
-3
-4
-4
-2
1
2
3
2
3
3
4
6
5
2
-2
-2
-4
-3
-1
-1
1
-1
-1
-1
-2
1
1
2
4
2
2
4
4
4
-1
-2
-1
-2
-4
-6
-7
-5
-2
-4
-4
-1
0
-1
2
3
6
7
2
-1
-1
-2
-2
-2
-4
-7
-6
-5
-2
-1
-2
-1
2
2
3
6
7
6
4
4
2
0
-1
-2
-3
-3
-6
-6
-2
-2
-1
1
3
5
7
4
2
1
-4
-6
-4
-4
-2
-1
-6
-9
-10
-5
-4
-5
-3
0
4
3
4
2
1
4
4
5
2
1
-1
-2
-3
-6
-4
-6
-4
-2
-3
0
1
1
4
5
4
4
2
2
1
-1
-2
-2
-4
-6
-6
-5
-4
-4
1
3
2
2
4
2
1
1
-1
1
0
-2
-5
-7
-8
-2
6
2
5
10
8
5
6
2
5
5
-2
-2
1
0
-1
1
0
-1
-6
-7
-6
-4
-2
-4
-4
-14
-19
-7
1
1
7
8
12
14
8
3
-2
8
14
1
-9
-9
-13
-14
-15
-21
-2
19
21
8
2
7
12
11
-4
-16
-21
-21
-11
-12
-11
-10
-14
-11
-6
1
8
13
8
5
4
4
0
-1
1
-2
-4
-6
-4
-2
-1
2
2
3
1
0
2
1
2
2
2
-1
-1
0
-2
-6
-11
-19
-19
-10
-22
-52
-44
-6
32
84
114
110
77
34
23
2
9
65
92
39
-72
-126
-142
-145
-123
-104
-67
-6
47
75
80
72
52
21
-11
-55
-91
-98
-71
-18
18
37
41
41
36
27
34
29
17
9
4
1
-2
-1
-1
0
1
-2
-1
-5
-10
-11
-12
-10
-6
-8
-7
-8
-10
-10
-6
2
4
6
24
63
82
65
31
14
29
31
59
74
37
22
-31
-52
-22
-22
-12
-55
-135
-184
-206
-163
-57
-1
12
12
-46
-62
-37
-1
5
-39
-71
-95
-24
78
130
140
136
140
153
162
116
86
85
77
57
4
-57
-104
-115
-105
-88
-67
-58
-52
-40
-14
13
27
38
34
26
19
12
4
-2
-2
-2
-2
-3
2
5
7
9
-1
-19
-16
-11
-32
-30
1
25
41
58
52
2
-27
-41
-54
-84
-112
-98
-94
-81
-67
-60
-31
13
48
60
72
84
92
83
64
49
17
7
32
47
54
65
55
27
-6
-42
-58
-49
-19
2
14
20
11
-10
-24
-27
-27
-17
-9
-8
0
16
39
42
26
21
-1
-32
-60
-87
-76
-33
2
7
3
14
29
25
12
-6
-17
9
34
27
9
13
12
-22
-36
-1
26
31
54
54
19
-12
-41
-96
-138
-139
-109
-44
15
44
28
23
80
122
99
46
-4
-60
-100
-113
-105
-66
-34
-15
2
29
56
54
51
61
88
97
80
52
27
-14
-69
-85
-66
-43
-39
-7
24
32
38
37
32
5
-25
-37
-10
9
-15
-8
7
11
19
17
13
7
1
-6
-9
-8
-10
-6
2
4
-5
-7
13
20
-2
-12
-17
-13
9
17
16
-17
-70
-89
-64
-17
33
59
44
25
6
-19
-14
1
14
35
41
17
-12
-35
-41
-19
0
7
7
11
19
26
23
21
32
24
1
-25
-27
-9
4
15
9
-12
-39
-52
-53
-46
-37
-29
-12
-17
-26
-14
4
12
19
39
50
40
16
-2
-4
-12
-2
41
56
51
44
16
4
14
27
22
24
13
-44
-46
-52
-83
-63
-47
-47
-52
-7
39
49
37
-4
-6
-8
-21
-31
-42
-32
-36
-18
24
42
52
69
79
76
44
7
2
-10
-16
1
17
24
-1
-40
-59
-58
-79
-89
-60
-21
29
46
52
52
27
-1
2
12
-10
-8
-1
-11
-2
14
12
8
-1
-3
16
17
3
-2
19
29
35
48
-7
-63
-85
-91
-50
-16
10
26
19
28
27
2
-17
-26
-24
-9
14
31
59
89
90
57
21
-3
-37
-65
-104
-135
-107
-76
-41
16
61
79
74
55
37
29
35
44
51
42
21
-5
-15
-17
-36
-47
-60
-77
-55
-26
-29
-44
-61
-61
-38
-6
9
3
25
60
54
30
19
23
42
54
51
39
27
22
7
-17
-42
-52
-51
-44
-12
19
17
3
-3
6
31
45
34
27
44
32
2
-9
-40
-83
-130
-156
-116
-69
-45
-5
41
66
69
53
44
35
26
25
20
16
25
44
60
70
64
51
26
-12
-41
-52
-42
-16
-14
-21
-36
-57
-55
-65
-44
2
-11
-21
14
42
53
58
67
67
32
-9
-41
-55
-59
-64
-55
-29
2
12
3
-1
4
33
57
45
26
9
-16
-42
-46
-29
2
29
31
52
70
57
39
16
-7
-16
-27
-34
-22
-25
-25
-23
-31
-29
-7
18
10
-18
-26
-17
4
-21
-60
-41
-27
4
59
87
80
37
-26
-74
-95
-82
-66
-60
-20
42
67
49
41
24
-26
-57
-61
-52
-31
7
34
55
66
48
24
-1
-11
-6
16
37
56
74
69
93
100
64
61
39
-17
-72
-110
-117
-87
-39
-14
-14
-11
13
22
11
0
-11
-9
2
25
60
76
67
36
-22
-69
-72
-74
-68
-40
-27
-37
-55
-49
-36
-44
-34
4
11
-27
-47
-18
17
33
46
52
40
43
69
90
90
37
-21
-48
-47
-24
-2
15
13
17
8
-12
-17
-20
-16
2
10
4
10
16
27
6
-16
-2
-39
-58
-10
2
11
21
-9
-11
1
13
35
31
3
-60
-109
-101
-55
4
31
49
59
55
76
72
34
-6
-51
-74
-83
-75
-68
-51
-19
-9
16
73
112
102
73
42
7
-16
-46
-46
-25
-3
14
2
-16
-33
-29
9
56
88
117
89
6
-12
4
23
37
-4
-74
-140
-179
-183
-148
-75
-17
6
25
86
137
113
69
24
-13
-26
-42
-69
-65
-17
18
34
67
107
134
119
59
-6
-46
-83
-106
-107
-107
-79
-20
35
57
67
81
66
51
55
66
79
64
1
-69
-129
-174
-168
-109
-17
27
6
-8
-4
1
-6
-16
-24
-19
-5
28
52
49
51
44
33
38
30
34
41
43
42
27
4
-16
-16
0
4
13
55
80
55
14
-33
-100
-129
-116
-104
-63
-16
-32
-82
-72
-31
7
54
69
62
65
69
61
64
58
35
-5
-69
-117
-122
-80
-21
27
47
54
60
55
47
34
23
6
-27
-55
-54
-39
-6
30
40
25
7
5
10
19
1
-39
-82
-89
-54
-36
-25
-5
22
44
69
121
150
132
120
67
-26
-88
-147
-171
-127
-71
-10
64
124
172
218
194
75
-54
-175
-270
-282
-223
-157
-121
-93
-53
-6
62
130
150
130
91
33
-16
-26
-10
1
6
15
37
42
47
57
29
2
-20
-27
-7
30
56
37
25
6
-37
-73
-91
-71
-35
-1
19
9
16
33
35
36
36
56
82
74
30
-10
-4
33
44
41
31
-36
-119
-183
-196
-165
-97
24
97
85
47
-1
-42
-92
-109
-87
-87
-77
-39
6
37
58
80
112
130
108
79
59
56
55
22
8
28
22
12
18
28
28
17
-4
-17
-21
-32
-34
-59
-89
-90
-62
1
54
80
92
68
3
-58
-92
-92
-62
-15
24
42
67
72
20
-31
-81
-155
-191
-162
-77
2
34
51
59
69
74
70
65
77
87
65
59
30
-16
-14
-17
-8
11
27
30
-12
-82
-116
-116
-88
-43
-7
27
34
36
38
36
37
23
22
29
32
34
16
-5
-13
-4
26
42
34
6
-24
-15
6
26
41
10
-38
-92
-141
-137
-143
-127
-62
-37
-4
-6
-31
-32
-75
-73
-26
29
84
101
114
105
78
71
97
117
106
83
94
124
105
59
19
-19
-90
-130
-96
-57
-12
-12
-40
-44
-39
-12
35
77
78
45
-26
-89
-102
-65
0
27
-1
-70
-105
-97
-78
-47
4
59
62
39
3
-12
10
1
-19
-31
-27
4
30
50
46
11
-6
-12
-6
27
70
75
-8
-64
-52
-78
-114
-100
-39
49
126
190
158
60
11
-19
-29
-42
-9
24
16
26
6
-24
-80
-100
-112
-140
-117
-84
-7
65
102
90
55
35
46
96
110
133
160
123
-12
-167
-226
-226
-166
-85
-13
37
75
108
84
37
26
17
0
20
32
6
-38
-85
-89
-59
-19
18
27
12
-2
-18
-39
-36
-9
32
70
90
77
34
-1
-42
-74
-95
-110
-97
-97
-78
-38
-9
41
120
171
162
127
75
17
-27
-42
-36
-25
-4
2
-6
4
-2
-26
-31
-9
37
46
23
8
-16
-26
-43
-22
9
-14
-2
18
4
4
52
87
47
18
-12
-40
-17
-21
-39
-60
-68
-40
-4
14
13
4
5
31
49
46
14
-19
-49
-88
-85
-50
-16
4
29
62
58
44
59
96
89
52
31
-51
-133
-163
-155
-94
-40
4
31
36
19
-2
1
16
36
57
68
34
-26
-52
-42
-22
-9
8
21
12
6
10
-1
-10
-11
-16
-7
-12
-19
2
41
60
59
56
49
43
21
9
-4
-6
-5
7
45
38
16
-7
-41
-32
24
37
-1
-26
-69
-88
-98
-94
-46
-46
-37
-10
11
37
36
27
24
16
4
-14
-22
-11
-10
-11
3
31
52
50
35
16
-1
-32
-66
-51
-11
-39
-80
-80
-83
-41
6
12
14
4
-6
3
8
27
63
56
18
18
32
39
46
47
33
15
14
12
21
17
7
3
-2
-7
-22
-17
-8
-3
-18
-19
-7
-2
14
11
16
28
29
45
68
65
55
28
-19
-40
-36
-19
-41
-92
-144
-142
-107
-60
15
37
41
41
44
60
63
52
22
2
-6
-7
-1
12
21
23
3
-26
-34
-37
-31
-20
-6
-14
-32
-24
-20
-23
-26
-19
-1
2
4
13
31
74
122
105
59
71
102
101
72
1
-87
-141
-155
-135
-116
-95
-58
14
107
130
112
64
-1
-48
-80
-91
-88
-68
-50
-19
23
40
53
49
32
19
-2
-14
-18
-38
-31
-19
-14
13
26
62
100
113
105
79
53
27
7
-6
-14
-29
-34
-24
1
61
60
-25
-97
-162
-163
-104
-54
-19
6
14
-12
-11
-9
-14
-15
-43
-69
-59
19
71
87
147
166
85
-27
-110
-163
-161
-136
-102
-71
-48
4
67
94
84
87
126
170
168
112
33
-79
-128
-33
66
87
36
-42
-107
-143
-102
-40
-31
-12
38
104
165
150
39
-87
-97
-2
63
6
-49
-59
-101
-46
95
146
115
78
2
-77
-107
-117
-145
-212
-256
-277
-227
-122
-42
33
88
107
106
104
90
101
113
89
70
61
58
49
42
32
22
29
36
44
41
16
-14
-41
-55
-56
-50
-29
-2
15
34
41
79
166
223
208
139
65
37
41
27
-39
-159
-264
-263
-236
-210
-168
-138
-53
66
184
197
161
128
16
-87
-137
-131
-90
-34
13
39
72
97
118
122
100
78
71
74
46
17
23
24
23
25
-11
-27
-25
-38
-48
-55
-37
-21
-11
-9
22
105
115
41
-30
-77
-119
-138
-104
-70
-69
-79
-102
-119
-78
-18
-17
-32
-6
45
173
256
169
112
51
-82
-51
70
52
-93
-226
-278
-224
-127
-147
-159
-138
-94
15
74
85
47
52
129
198
191
99
29
-37
-74
-52
14
77
110
178
176
105
63
12
-46
-95
-100
-100
-118
-108
-70
-13
18
23
0
18
94
68
-16
-68
-154
-193
-163
-107
0
74
72
2
-22
-9
6
39
52
80
68
56
43
37
53
13
-6
-23
-8
24
34
55
62
53
26
17
6
8
19
14
16
-14
-57
-64
-60
-58
-47
-31
-17
-8
2
15
20
27
54
78
55
7
-21
-34
-54
-77
-44
3
-3
-36
-65
-68
-49
-1
35
38
67
123
176
198
133
-16
-161
-195
-170
-108
1
11
-41
-84
-83
-11
6
-39
-24
-14
-4
79
92
47
76
65
0
6
62
110
119
93
42
0
-31
-28
18
21
21
16
1
1
-8
-9
-25
-37
-51
-69
-62
-37
-22
-30
-31
-20
-26
-32
9
46
19
8
28
23
17
-1
-17
11
25
21
34
36
-10
-56
-52
-30
-29
-55
-51
-47
-46
-53
-60
-32
-4
17
23
26
41
72
127
208
190
42
-92
-162
-147
-77
6
39
-6
-22
-28
-32
7
14
17
27
14
17
18
8
-12
-18
-31
-37
-7
7
-1
1
4
24
55
58
41
21
11
-8
-38
-44
-31
10
39
30
46
175
415
526
294
-125
-460
-617
-556
-385
-232
-118
-57
-17
35
89
115
104
66
47
51
33
30
60
75
75
72
61
57
57
31
12
-1
-33
14
66
57
38
1
-17
-17
-17
-45
-65
-70
-56
-36
-49
-29
6
37
41
34
35
21
11
4
-15
7
84
105
60
-2
-73
-126
-137
-123
-103
-64
-81
-57
82
133
120
128
59
-17
-41
-12
71
111
91
79
88
70
49
49
42
26
4
-17
-32
-60
-79
-83
-91
-89
-89
-75
-72
-47
-18
-34
-38
-51
-24
25
36
69
77
41
5
-1
25
17
-13
-32
-19
4
-25
-39
-11
-26
-67
-51
-29
-41
-34
-39
-42
-47
-59
-32
-5
33
125
173
142
109
92
90
82
45
-41
-95
-58
-50
-61
20
221
329
211
53
-173
-339
-384
-404
-306
-221
-136
-22
61
137
171
187
175
158
142
116
100
61
48
36
4
21
28
8
-4
-41
-78
-75
-37
4
36
72
76
26
-27
-47
-46
-36
-33
-32
-31
-14
-5
-27
-46
-47
-16
1
-21
-27
-30
-12
37
67
49
37
38
4
-48
-74
-57
-27
7
18
-9
-17
-32
-33
16
59
64
19
-20
-7
-2
-1
4
-12
-33
-52
-55
-37
-2
14
7
11
-15
-18
4
10
28
39
44
31
1
-57
-86
-46
31
57
33
65
74
67
37
-4
-13
-29
-24
-16
-5
-22
-39
-34
-17
11
4
-6
-6
-6
-9
-15
-24
-5
59
58
49
43
-6
-17
-22
-31
-36
-36
-51
-58
-26
-23
-42
-26
22
85
204
357
384
220
-54
-304
-417
-354
-223
-158
-105
-27
41
92
115
128
131
116
87
30
-18
-22
3
2
-21
-34
-41
-37
-15
4
-4
-14
-12
-2
34
35
-1
-18
-24
-4
12
-1
9
17
-4
7
-4
-48
-56
-77
-72
-54
-40
49
102
75
67
79
75
62
90
103
57
14
-32
-89
-113
-100
-102
-102
-69
-46
-43
-32
2
143
278
208
47
-88
-160
-158
-135
-112
-65
-9
12
44
94
104
107
117
109
87
46
14
-10
-12
7
7
-24
-53
-14
39
19
-54
-128
-104
11
5
-67
-101
-174
-181
-71
99
210
213
155
34
-47
-90
-100
-77
-65
-71
-86
-24
41
47
57
81
82
51
13
-40
-61
-46
-32
-31
-38
-54
-58
-37
-24
12
73
94
94
82
18
9
15
6
41
31
1
-10
-36
-42
2
71
77
19
-17
-39
-69
-54
-42
-41
-29
-39
-61
-80
-54
-26
-22
-42
34
245
245
129
14
-130
-155
-135
-44
51
56
34
30
54
65
59
16
-37
-25
2
-28
-31
-11
-11
-2
-4
-7
-10
-9
-19
-29
-56
-75
-59
-74
-93
-45
52
84
48
9
-12
-3
12
39
47
61
77
55
26
19
-5
-93
-98
-25
58
103
91
81
60
65
73
26
-34
-87
-183
-240
-177
-85
-24
-6
-7
5
12
3
14
6
1
29
64
93
183
238
74
-100
-145
-105
-195
-345
-326
-203
6
135
240
331
345
332
238
142
109
130
133
77
2
-44
-59
-73
-72
-80
-94
-113
-136
-118
-75
-55
-36
2
-23
-90
-95
-70
-38
-55
-137
-161
-80
-16
31
95
104
112
79
51
24
-27
-12
-4
3
7
22
17
-15
-14
-5
-11
-22
-11
1
51
46
4
54
88
105
91
-6
-36
11
-21
-79
-123
-165
-200
-166
-62
4
95
155
122
80
55
33
-41
-115
-105
-42
6
28
59
41
-19
-26
-1
52
80
54
105
191
131
31
-19
-91
-195
-226
-137
-60
14
60
29
-16
-46
-35
-7
4
41
62
60
69
58
37
26
67
85
34
20
11
-14
-27
-39
-14
-7
-28
-32
-17
8
-19
-31
-39
-89
-84
-79
-82
-88
-90
-4
196
375
372
226
51
-90
-255
-363
-344
-276
-195
-85
-9
-17
-20
2
33
45
49
40
46
71
69
43
26
76
110
103
84
80
132
133
147
280
509
642
410
-20
-391
-662
-775
-621
-421
-362
-218
-72
26
176
234
188
120
67
50
73
106
142
152
129
133
117
74
60
57
54
29
-7
-29
-47
-57
-38
-39
-76
-78
-74
-80
-103
-163
-165
-70
19
56
68
90
113
94
72
35
-5
9
24
22
6
-6
-2
19
22
-73
-125
99
483
626
490
207
-46
-251
-521
-596
-526
-463
-399
-370
-261
-133
-27
44
41
43
64
128
186
179
130
67
32
64
102
102
108
78
58
110
194
241
150
67
308
589
432
88
-181
-475
-700
-741
-571
-323
-145
-34
23
85
113
104
104
75
102
218
249
234
187
8
-120
-191
-241
-36
387
579
415
138
-175
-183
65
181
72
-218
-507
-696
-679
-506
-304
-130
-43
-22
-42
-29
115
211
88
82
60
-181
25
664
854
575
366
473
486
59
-292
-544
-635
-478
-144
370
544
456
290
83
-4
-77
-243
-408
-401
-347
-387
-466
-434
-309
-180
-79
3
78
127
185
188
174
213
202
54
-62
-32
-11
-39
-21
74
157
213
226
203
208
182
168
119
59
47
23
-8
-67
-110
-146
-172
-176
-163
-83
113
327
284
56
-127
-210
-221
-224
-200
-153
-97
-42
-23
-56
-55
-39
-64
-61
-41
33
99
44
27
125
220
229
203
221
136
74
80
-64
-241
-337
-314
-271
-165
-5
-36
-75
10
107
208
264
243
139
4
-65
-132
-170
-67
46
81
54
-70
-162
-257
-338
-332
-244
-24
122
215
263
200
99
-38
-27
130
248
256
162
75
20
-56
-60
-38
-27
155
389
425
255
-37
-322
-467
-418
-263
-191
-153
-80
-49
-22
-17
-27
-49
-89
-84
-42
23
41
36
30
44
110
95
62
114
188
215
201
171
112
80
64
83
130
92
-49
-268
-382
-296
-136
-6
18
30
47
57
90
72
29
16
2
0
29
18
-26
-30
21
34
-56
-160
-231
-223
-143
-97
-82
-45
14
62
71
75
84
83
78
65
55
47
35
19
5
-6
-9
1
9
15
11
14
28
21
18
22
6
-9
0
6
-4
-16
-18
-19
-20
-19
-27
-21
-14
-19
3
8
-4
4
10
14
16
14
10
5
-1
-10
-12
-16
-27
-24
-17
-12
12
32
16
-2
-3
-11
-2
13
15
37
39
7
4
6
-6
-10
-4
-9
-22
-20
-21
-17
-3
-2
-16
-27
34
151
190
108
-19
-94
-145
-159
-106
-47
-5
-17
-21
7
46
51
4
-24
-63
-78
-63
-33
20
54
49
41
46
64
102
126
114
67
13
-11
-42
-79
-84
-70
-55
-46
-30
-16
-18
-17
-24
-36
-36
-25
-12
-7
11
11
-4
4
-1
-2
14
26
26
31
38
22
21
33
27
23
16
7
11
11
1
-6
-16
-30
-30
-20
-2
17
26
21
17
26
16
11
12
-9
-17
-19
-27
-15
-6
-18
-29
-35
-28
-4
13
6
8
4
-4
7
17
10
-2
8
6
0
-1
-9
-17
-28
-22
-11
-4
-10
-9
6
7
4
9
18
12
9
14
10
1
5
4
-14
-17
-14
-12
-6
-6
-4
-2
-1
4
10
14
14
18
20
19
16
14
7
-8
-8
-6
-6
-9
-22
-22
-14
-18
-14
-4
-3
-7
2
36
42
29
17
8
-2
-19
-17
-19
-22
-21
-20
-15
-21
-15
-3
10
14
-2
0
-2
-9
1
0
-9
-3
1
2
6
-1
4
20
17
3
30
69
41
-30
-52
16
80
70
29
-31
-75
-74
-50
-36
-65
-105
-117
-87
-46
-12
16
29
26
22
22
12
20
31
48
77
63
38
23
14
18
19
22
18
22
26
18
-7
-22
-12
-11
-9
-2
7
13
19
6
-9
-5
-19
-16
-21
-36
-34
-26
-22
-41
-34
-19
-9
0
27
61
56
35
7
-2
47
119
120
16
-103
-152
-156
-137
-87
-43
-5
26
52
75
62
51
39
21
77
272
451
414
239
87
-51
-251
-365
-400
-449
-393
-320
-236
-165
-101
108
299
316
220
123
-3
-131
-160
-138
-127
-138
-173
-239
-205
-84
22
110
160
218
247
247
232
148
59
5
8
54
76
93
102
89
69
52
26
16
4
-9
-1
-7
-14
-7
-8
-10
-9
-14
-21
-22
-27
-32
-42
-47
-38
-37
-32
-25
-23
-28
-40
-60
-67
-38
-4
24
51
60
41
20
8
-14
-17
4
51
77
77
72
15
-59
-132
-176
-158
-115
-59
-24
5
21
12
4
-4
-6
-4
-6
-41
-50
1
39
47
34
35
46
47
99
159
158
102
-1
-61
-30
22
21
-14
-67
-98
-96
-107
-107
-42
115
260
217
28
-146
-251
-249
-183
-104
-20
32
62
81
102
113
101
62
-4
-44
-55
-56
-28
10
21
25
31
29
27
16
9
8
12
16
7
-2
-6
-6
-5
-4
0
2
8
7
-9
-17
-25
-48
-64
-69
-104
-105
-31
-15
-1
82
242
437
412
206
7
-159
-217
-188
-132
-70
-36
-24
-20
-15
-34
-56
-60
-55
-47
-44
-39
-30
-20
-14
-1
11
14
15
17
12
-1
-14
-8
9
23
27
37
60
58
67
79
36
-9
-36
-53
-51
-37
-17
-7
2
8
10
11
9
1
-2
-6
-9
-13
-20
-14
-11
-15
-18
-6
9
13
22
26
24
20
15
9
5
2
0
-4
-11
-14
-13
-11
-15
-12
-10
-10
2
7
6
11
14
16
16
11
11
3
-9
-16
-15
-14
-17
-16
-14
-9
-4
-2
1
6
12
9
7
8
9
12
6
4
5
-5
-7
-3
-8
-13
-14
-14
-5
-3
-1
5
10
18
20
16
11
7
9
3
-1
1
-4
-9
-9
-10
-10
-15
-21
-16
-11
-3
5
11
6
7
12
2
4
2
-3
-6
-13
-8
-12
-13
-14
-16
-16
-14
-8
-1
9
20
28
26
16
14
8
6
10
4
6
2
-14
-34
-27
-16
-19
-7
1
7
9
2
-4
-2
12
9
-1
-7
-12
-12
-6
4
3
4
5
-1
-12
-20
-16
-2
2
9
23
16
17
25
13
6
0
-2
-7
-7
-4
-7
-6
-16
-25
-21
-5
-2
0
6
13
25
17
15
15
9
17
9
1
-7
-18
-16
-22
-24
-21
-9
2
-3
2
8
7
7
5
9
12
13
11
3
-1
-5
-15
-23
-21
-15
-6
-1
-4
3
8
1
3
14
17
15
1
2
12
-4
-16
-21
-26
-23
-28
-24
-15
-19
-21
-7
8
15
11
2
9
25
24
6
10
13
9
12
14
9
-11
-24
-25
-21
-14
-2
2
3
15
26
26
27
36
32
25
14
4
-6
-9
-14
-21
7
7
-19
25
150
314
315
137
-37
-220
-350
-363
-287
-186
-102
-27
14
46
48
35
23
7
3
7
19
25
33
37
39
43
40
28
16
-1
-17
-1
46
89
87
58
36
1
-36
-62
-75
-61
-47
-39
-43
-49
-15
-39
-201
-201
42
138
95
65
29
21
10
38
87
166
275
271
141
7
-92
-138
-109
-77
-60
-59
-97
-112
-82
-38
-2
11
21
19
-2
-27
-41
-36
-26
-17
-11
-4
-7
0
13
11
7
5
-2
-12
-15
-28
-25
-6
-12
-25
-16
-9
-1
21
28
28
29
31
37
37
28
20
17
15
18
37
68
87
59
-12
-55
-60
-65
-57
-42
-14
17
54
72
41
12
-17
-27
-36
-31
62
124
106
41
-52
-114
-115
-77
-29
47
85
71
56
25
-26
-67
-99
-142
-118
-46
-12
-14
-32
-44
-21
21
57
75
72
82
76
42
24
22
-1
-32
-74
-90
-59
-25
-9
-28
-46
-49
-54
-51
-45
-14
21
60
132
158
108
44
-8
-19
-17
-16
-7
-4
-8
-35
-23
31
44
19
-11
-45
-49
-21
19
44
32
21
6
-8
-47
-67
-22
22
79
104
39
-36
-63
-31
19
79
125
67
-37
-111
-159
-160
-107
-51
-6
2
-34
-41
-17
2
21
44
65
105
94
-13
-27
17
31
76
53
32
24
-25
-52
-83
-94
-65
-19
12
9
1
4
12
14
22
34
34
32
36
29
24
19
11
10
-1
-11
-18
-21
-24
-26
-19
-7
0
3
-2
-4
1
6
8
4
9
11
7
-2
-17
-26
-24
-12
-9
-18
-19
-17
-24
-17
-3
7
8
6
2
-8
4
19
16
9
2
1
-1
-9
-8
-6
-7
-1
1
5
8
9
15
14
10
6
4
-1
-10
-12
-13
-9
-7
-10
-14
-13
-8
-4
2
8
10
11
12
12
8
11
16
9
2
-1
-4
-9
-11
-12
-11
-8
-7
-1
2
5
8
9
11
9
9
6
2
1
-8
-12
-10
-10
-11
-11
-11
-12
-11
-6
1
3
8
17
15
14
13
9
8
7
0
-9
-15
-19
-17
-14
-13
-17
-19
-19
-19
-16
-14
1
37
51
42
22
6
12
7
2
-14
-25
-17
-19
-12
-18
-12
2
3
9
10
11
16
17
12
12
12
4
-11
-21
-15
-7
2
6
-1
-13
-24
-17
-6
-4
-6
-5
-1
7
12
22
31
23
23
16
4
1
-9
-11
-9
-9
-11
-19
-22
-14
2
6
-4
-21
-18
-2
8
4
-12
-1
17
21
6
-18
-19
-14
-9
-1
2
6
26
26
19
17
9
6
2
-3
-9
-9
-12
-15
-16
-18
-14
-15
-15
-13
-12
-9
-3
5
7
10
22
28
26
21
1
-12
-22
-32
-27
-19
-9
10
13
2
-1
10
19
19
19
18
16
7
2
-6
-14
-16
-21
-12
-7
-17
-12
-3
-9
-2
7
9
9
8
11
10
7
7
11
9
5
-1
-11
-16
-21
-23
-21
-15
-19
-21
-14
-2
17
27
29
29
24
20
16
17
17
23
25
16
7
-11
-23
-27
-38
-45
-47
-36
-10
7
9
3
5
8
7
10
8
2
1
-3
-8
-6
-8
-9
-2
6
9
9
12
23
33
29
13
-1
-14
-17
-9
-6
-12
-22
-32
-32
-29
-28
-3
22
34
31
19
11
7
12
9
6
0
-10
-4
-8
-21
-13
0
-2
-2
-2
-4
-6
-3
4
9
14
15
12
6
7
1
-7
-9
-11
-11
-8
-7
-19
-16
-16
-18
-12
-14
-13
-14
-11
-7
-4
-2
-11
-12
-11
-14
-12
-15
-20
-19
-11
1
10
14
21
27
29
27
30
35
40
47
43
36
27
20
19
16
11
3
-2
-9
-12
-10
-11
-3
3
3
6
1
-6
-7
-13
-32
-40
-27
-10
-14
-17
-11
-16
-16
-12
-12
-4
3
5
6
5
4
10
13
5
0
1
-2
-8
-12
-13
-14
-14
-12
-10
-8
-6
-2
1
0
0
-1
2
5
5
10
16
14
6
-3
-4
-5
-7
-5
-4
-3
2
3
-2
2
4
3
3
5
11
8
0
-2
-7
-9
-11
-10
-11
-15
-11
-6
-2
0
1
7
12
18
25
21
9
2
-1
-6
-17
-12
-6
-4
0
1
3
-2
-7
-10
-11
-7
2
15
12
6
7
8
5
-6
-14
-12
6
9
-9
-24
-35
-34
-22
28
76
69
27
-11
-21
-18
-1
13
31
32
12
-1
-14
-36
-78
-100
-110
-89
-43
-29
-26
-32
-31
-35
-17
45
93
87
77
108
120
121
94
19
4
105
215
168
69
-2
-57
-24
12
-9
-76
-128
-124
-110
-105
-104
-89
-75
-72
-60
-56
-53
-28
9
36
31
-3
-27
-26
-12
1
29
66
90
70
33
-2
-42
-47
-29
-13
-8
-7
-10
-21
-17
-14
-21
-38
-32
14
30
1
-2
7
9
25
42
99
155
143
150
123
57
22
-9
-23
-65
-96
-97
-111
-89
-34
7
19
19
6
-14
-36
-46
-63
-70
-39
-11
36
94
114
91
72
81
72
23
-29
-51
-83
-132
-166
-179
-148
-100
-67
-43
-22
-5
4
12
26
47
59
71
85
70
42
35
38
49
72
103
152
174
147
62
-44
-116
-170
-180
-147
-98
-47
-19
-25
-39
-37
-12
16
24
33
42
37
43
65
112
116
62
9
-43
-52
-46
-51
-52
-47
-26
-8
7
15
25
27
19
9
-1
0
-5
-6
-3
-1
1
-3
-1
4
11
14
6
1
-9
-12
-8
-7
-10
-15
-23
-29
-19
-9
-2
-1
-1
6
7
7
11
11
10
10
12
7
-2
-8
-7
-10
-14
-22
-24
-17
-11
-6
2
7
8
16
24
25
23
19
12
13
7
-1
-2
-10
-16
-16
-21
-23
-19
-13
-12
-5
2
4
6
3
1
3
2
-8
-6
0
1
7
4
-9
-11
-3
-1
-1
-2
-1
7
10
11
9
9
7
5
3
-1
-7
-13
-15
-19
-17
-14
-14
-12
-6
-4
-9
-4
8
19
25
23
15
9
9
2
-4
-6
-5
-6
-4
1
1
11
12
10
7
7
8
4
2
-1
-1
1
2
-1
-7
-14
-14
-8
-7
-14
-12
-4
-4
1
7
11
8
15
16
13
16
12
8
-3
-16
-16
-7
-7
-15
-16
-15
-21
-23
-9
6
6
0
5
4
-7
-6
-1
3
3
-3
4
6
-6
-5
2
4
-1
-2
0
0
1
3
11
14
10
-2
-6
4
12
4
-12
-18
-11
-3
-7
-16
-14
-2
5
6
2
-2
-3
-3
-7
-10
-7
-1
-4
-10
-17
-22
-17
-22
-23
-19
-17
-12
-6
3
11
16
25
32
37
33
31
31
31
31
22
8
-4
-4
-1
4
12
17
16
12
20
21
12
-1
-10
-2
2
3
4
-7
-21
-21
-16
-14
-16
-16
-21
-26
-19
-11
-4
9
4
-1
2
-6
-10
-10
4
17
11
1
-21
-31
-29
-31
-26
-16
-5
4
4
6
14
14
14
9
4
1
-2
-1
-11
-12
-3
-5
-2
-1
-9
-7
-2
4
13
11
11
17
21
12
1
-6
-4
2
1
-6
-11
-11
-9
-9
-5
1
2
2
4
9
14
15
13
8
3
-1
-6
-1
0
-5
-11
-14
-11
-9
-4
5
3
4
10
11
9
6
6
4
4
2
-1
-4
-10
-7
-10
-19
-19
-14
-12
-11
-14
-16
-2
23
36
24
17
9
10
14
-4
-8
4
9
1
-16
-17
-22
-25
-15
-9
-2
10
12
7
2
6
7
1
-1
-6
-13
-16
-9
-2
-2
2
4
-1
2
13
18
7
-5
-9
-12
-4
9
25
33
21
11
0
-17
-27
-25
-16
-9
-7
-5
2
2
4
2
7
9
7
9
4
1
-3
-10
-11
-9
0
-1
-19
-27
-26
-17
-2
1
7
23
30
24
32
36
22
14
8
7
7
0
-7
-10
-16
-14
-11
-11
-9
-7
-4
-2
-2
-6
-13
-14
0
14
12
-11
-26
-27
-19
-8
1
13
4
7
19
14
22
24
24
22
11
2
-1
-11
-22
-24
-19
-14
-15
-15
-16
-14
-8
-2
-4
-12
-1
8
1
-6
1
12
17
19
12
7
-2
-12
-22
-24
-19
-12
-1
-2
-4
6
14
9
11
13
17
16
9
10
4
0
-6
-19
-37
-52
-51
-23
22
45
55
75
84
125
152
70
-24
-55
-79
-105
-54
91
249
239
80
-74
-264
-395
-378
-234
-97
-33
51
128
181
131
37
-37
-89
-74
-53
-47
-52
-42
-3
28
54
160
309
342
231
44
-49
13
45
34
57
9
-92
-165
-207
-250
-261
-167
-24
31
16
-6
-44
-56
-64
-118
-208
-236
-185
-100
45
150
190
211
211
195
153
105
79
80
74
59
42
42
50
71
120
107
41
-16
-65
-96
-89
-28
22
-13
-52
-3
72
82
15
-107
-205
-236
-221
-147
-94
-46
28
74
86
80
101
132
127
88
44
37
51
31
-19
-63
-92
-117
-137
-133
-105
-4
138
132
26
-32
-37
-19
-41
-80
-105
-69
-6
19
-4
-41
-23
11
44
63
68
82
95
92
67
69
90
123
135
70
2
-41
-55
-29
14
10
-71
-113
-123
-123
-101
-74
-55
-49
-17
6
26
41
29
35
35
26
11
-4
-6
3
12
8
1
2
10
17
31
33
32
22
-27
-65
-56
-37
-17
-1
-12
-27
-16
12
46
47
18
11
20
36
45
26
3
0
-21
-44
-31
-16
4
30
32
7
-12
-40
-59
-59
-58
-39
4
109
237
291
238
106
-37
-161
-234
-232
-170
-107
-80
-59
-56
-64
-74
-79
-57
-44
-32
-11
2
2
23
51
46
31
34
34
36
37
29
19
29
50
50
44
44
40
46
53
54
50
41
37
34
16
-5
-17
-13
5
14
31
33
16
4
-21
-22
-2
37
94
97
40
-1
-37
-99
-109
-27
42
61
83
28
-74
-181
-263
-276
-254
-160
-51
37
90
80
62
51
42
16
12
19
7
7
12
16
17
20
26
26
21
36
34
28
45
41
36
28
3
7
11
15
29
12
-10
-37
-54
-45
-23
-5
-12
-11
-6
-14
-8
-8
-8
-14
-21
9
37
42
33
21
21
23
7
-19
-35
-37
-36
-38
-37
-24
-5
3
-1
-2
-2
-5
0
2
-2
-6
-11
-14
-16
-16
-12
-11
-12
6
45
42
28
23
2
-14
-20
10
37
41
48
26
-2
-13
-16
-11
7
19
15
4
-26
-36
-30
-12
7
9
-1
-9
-4
-3
-11
-17
-2
28
33
13
-12
-9
-17
-38
4
55
62
73
87
54
-17
-62
-80
-87
-87
-81
-57
-45
-50
-50
-32
-14
4
22
22
27
30
33
44
42
37
29
27
26
18
-4
-16
-6
2
8
16
16
6
6
-6
-9
-5
-9
1
4
4
4
-6
0
11
3
-6
-7
-11
-22
-24
-19
-13
-1
6
6
10
16
19
12
14
16
16
11
1
-6
-4
-3
-14
-20
-17
-19
-19
-12
-2
-4
-9
-11
-2
5
1
11
27
42
39
21
8
-12
-24
-21
-22
-16
-24
-26
-14
-7
3
9
17
21
18
12
5
7
3
-11
-13
-4
-10
-20
-21
-20
-15
-13
-2
7
10
15
21
16
12
16
14
14
6
0
-1
-4
-12
-16
-13
-19
-21
-17
-12
7
12
6
3
0
1
3
5
3
-5
-14
-17
-15
-11
-11
-12
-7
-4
1
3
1
6
11
16
18
12
4
4
7
5
1
-7
-13
-14
-15
-10
-7
-6
-6
-2
3
9
17
11
10
12
8
2
-2
-4
-7
-6
-7
-12
-13
-11
-4
2
4
9
6
6
13
15
13
9
6
4
1
-6
-6
-10
-15
-15
-19
-16
-11
-6
1
4
12
15
17
19
20
17
10
8
4
-4
-11
-14
-15
-17
-19
-17
-16
-12
-6
-3
8
14
17
16
12
16
10
6
4
-3
-7
-10
-11
-12
-14
-15
-13
-12
-10
1
6
9
8
9
12
16
16
8
11
9
1
-6
-6
-5
-14
-21
-16
-7
-1
7
2
-5
6
9
6
17
16
3
-3
-8
-7
-11
-9
-13
-26
-33
-36
-24
-13
-15
-12
-2
13
21
23
29
42
51
51
49
34
6
-9
-9
-26
-44
-43
-28
-16
-7
-8
-17
-11
-4
-1
6
11
1
-7
-13
-10
16
44
49
12
-24
-35
-39
-24
0
12
11
17
11
1
-4
-11
-3
-4
-7
-2
4
4
-3
-7
-6
-5
-7
-10
-1
12
11
7
11
12
9
6
11
2
-6
-10
-17
-12
-12
-13
-11
-12
-7
-6
-5
2
1
6
16
9
0
3
4
3
5
1
-4
-3
-6
-7
-5
-2
7
12
9
7
9
8
7
5
-1
-2
-4
-8
-17
-30
-35
-36
-31
-30
-29
-26
-27
-21
-14
1
14
17
11
22
47
52
40
21
20
23
34
34
20
14
-1
2
19
32
31
31
26
-4
6
25
4
-17
-22
-18
-21
-22
-27
-32
-35
-52
-51
-27
-19
-12
-4
-7
-9
-5
5
5
-2
-4
4
6
9
-6
-25
-14
-10
-3
1
-8
-7
4
16
17
11
17
27
18
16
19
17
11
-2
-12
-20
-19
-16
-11
-7
-9
-1
9
10
14
21
17
8
2
3
1
-5
1
-1
-11
-15
-17
-14
-16
-17
-11
-11
-7
2
4
1
11
19
21
14
1
-1
-7
-8
-23
-20
4
-12
-11
4
-2
4
4
1
4
9
16
11
10
22
22
-1
-11
-17
-12
-2
-8
-4
1
-3
-10
-7
-1
-4
6
7
8
4
1
9
-2
-1
2
-8
-12
-15
-24
-32
-20
-6
-4
3
9
5
9
17
20
18
18
21
14
11
11
-2
-1
4
-4
-7
-8
-9
-12
-9
-9
-16
-14
-9
-1
12
9
9
11
-2
-7
-16
-14
6
9
-2
-17
-16
-6
-6
-6
-4
9
12
16
24
14
10
9
8
7
2
-7
-12
-22
-27
-9
-8
-11
-19
-27
-16
-3
7
4
12
16
20
31
21
19
9
2
1
-18
-22
-13
-8
-4
-1
-4
-1
6
8
17
17
22
22
15
9
-6
-13
-12
-3
0
-4
-11
-14
-7
-6
-11
-16
-11
-1
3
7
5
1
-2
7
13
4
-6
-9
-6
-6
-10
-16
-16
-17
-12
2
8
6
-3
-7
-5
4
4
6
8
1
12
17
9
-6
-13
-8
0
-2
-4
3
6
8
14
7
5
6
-2
0
1
-7
-16
-6
-2
-16
-15
-4
-3
-6
4
4
6
3
1
6
5
15
16
20
11
-9
-16
-26
-25
-16
-27
-31
-24
-14
1
8
16
17
15
26
35
31
22
19
12
9
-1
-7
-16
-23
-24
-30
-27
-28
-29
-24
-17
-25
-48
-30
3
18
45
49
49
49
42
41
30
32
24
12
5
-2
-1
-4
-6
-6
-2
-5
-10
-15
-21
-17
-23
-28
-22
-23
-27
-24
-12
-10
-10
-1
-4
-5
9
11
9
13
12
6
4
15
21
9
-2
-11
-16
-14
-12
-19
-17
-6
-6
6
15
14
14
11
18
14
11
12
-9
-13
-6
-6
5
-4
-20
-2
-4
-5
12
-1
-12
-9
4
10
7
11
11
12
6
3
9
-9
-24
-19
-24
-24
-22
-24
-16
-13
-4
12
17
21
22
13
10
13
14
23
11
-9
-6
-9
-21
-23
-21
-19
-16
-10
-4
-1
1
-7
-12
0
12
11
0
5
17
22
27
29
31
29
31
22
12
18
21
19
4
-2
-7
-22
-32
-21
-6
-17
-20
-22
-21
-15
-19
-22
-31
-21
-12
-7
-1
6
16
15
16
10
12
12
-1
-5
-2
-7
-20
-32
-28
-18
-17
-12
-8
-4
8
17
21
21
7
3
14
18
14
1
-6
-12
-14
-20
-20
-7
-6
11
22
21
27
31
24
14
-1
-12
0
-3
-12
-13
-8
-11
-14
-5
-12
-8
4
17
26
17
8
4
6
-3
-12
-21
-26
-26
-28
-23
-26
-38
-40
-39
-29
-17
-12
-6
-9
1
25
27
31
40
36
40
41
38
34
32
41
39
34
23
14
2
-9
-11
-6
1
13
13
11
5
1
-4
-10
-7
-14
-23
-31
-18
-11
-22
-26
-38
-38
-29
-18
-19
-14
-6
-5
1
-2
1
-1
4
7
-2
-8
-5
-1
-2
-8
-3
5
-2
0
4
4
15
22
22
16
5
6
3
1
-1
-6
-9
-17
-22
-24
-25
-14
-6
0
7
16
23
31
25
16
14
3
5
6
-1
-6
-10
-12
-17
-19
-21
-16
-11
-6
-2
-4
2
12
21
17
22
18
1
0
-7
-5
-6
-9
-9
-12
-12
-11
-6
-6
1
0
0
6
12
16
14
12
7
9
4
-6
-7
-18
-23
-20
-23
-24
-9
9
17
21
15
6
1
-1
12
16
11
7
1
1
-4
-13
-16
-16
-13
-11
-7
-4
1
3
6
8
4
7
10
9
6
1
-7
-11
-7
-8
-11
-16
-21
-11
-2
4
8
5
7
10
14
19
11
5
7
1
-4
-4
-5
-9
-17
-17
-11
-9
-9
-7
-3
6
7
7
11
12
14
12
11
9
-1
-6
-6
-11
-9
-9
-13
-11
-8
-3
3
6
7
10
11
11
14
9
4
0
-6
-6
-8
-11
-14
-16
-14
-11
-12
-6
6
12
11
7
10
11
11
3
-4
-11
-10
-2
-4
-7
-2
-2
-11
-9
-3
-11
-11
5
41
87
76
19
-46
-92
-92
-60
-15
29
46
36
22
24
54
77
54
9
-23
-33
-46
-46
-20
-41
-105
-117
-92
-90
-41
64
163
152
70
29
-4
6
26
46
55
39
37
34
44
67
65
15
-34
-74
-95
-90
-87
-78
-69
-57
-56
-47
-27
-12
10
16
14
5
-22
-7
21
9
-20
-44
-39
8
65
107
109
99
120
139
100
-24
-106
-128
-170
-201
-224
-200
-136
-56
39
82
89
91
66
44
32
40
72
104
142
166
156
137
133
98
6
-78
-128
-112
-7
53
-17
-138
-211
-218
-199
-202
-211
-168
-59
76
163
192
190
157
109
79
79
55
16
-1
-31
-61
-71
-82
-81
-65
-64
-37
58
137
121
110
109
55
14
43
110
82
-44
-155
-196
-137
-46
2
6
-11
-25
-29
-35
-55
-13
75
104
82
41
-4
-24
-2
24
1
-43
-90
-129
-117
-79
-31
14
34
39
39
47
57
54
47
52
67
66
45
16
-9
-26
-22
-25
-34
-32
-32
-19
-7
-6
2
7
2
6
6
-2
6
13
12
6
6
4
-2
-8
-22
-31
-29
-25
-17
-7
-4
-4
-3
12
19
11
13
27
44
26
-2
-22
-43
-32
-17
-21
-22
-9
0
3
11
14
7
2
7
21
41
55
61
44
0
3
41
2
-78
-132
-120
-54
2
15
-37
-67
-63
-38
1
16
29
27
17
29
68
92
81
57
29
18
17
17
-1
-29
-14
9
12
22
42
52
24
-32
-69
-70
-65
-63
-67
-97
-114
-95
-54
16
78
94
73
51
50
80
115
145
159
122
47
-33
-112
-173
-196
-178
-151
-117
-93
-65
-28
-15
16
109
167
92
28
47
75
73
28
-5
-26
-39
-41
-44
-40
-31
-16
-10
-15
-25
-17
9
21
24
24
31
54
70
70
56
19
-16
-39
-46
-29
1
22
31
31
9
-24
-50
-57
-52
-34
-12
-3
7
17
28
26
22
58
123
157
128
32
-94
-178
-193
-170
-140
-98
-54
-4
29
23
8
9
36
41
29
46
75
105
128
150
132
24
-88
-143
-137
-95
-86
-105
-110
-55
17
21
-7
5
16
28
44
62
60
37
72
120
135
119
67
27
22
-12
-49
-49
-45
-34
-35
-30
-43
-71
-80
-83
-67
-64
-74
-70
-70
-78
-58
-12
44
71
70
62
65
95
98
75
41
6
-15
-26
-20
-15
-11
-12
-9
-6
-3
4
7
16
21
33
47
22
-12
-14
-18
5
49
44
-6
-78
-125
-122
-60
42
70
47
62
68
52
19
-29
-53
-30
29
63
46
-11
-45
-54
-51
-9
51
51
-8
-34
-35
-42
-69
-90
-87
-78
-48
19
125
177
110
19
-41
-91
-113
-98
-65
-32
-5
10
23
52
70
49
-11
-61
-62
-35
16
27
3
-1
-12
-7
1
-5
26
85
127
158
148
93
60
26
-12
5
57
37
-50
-128
-158
-68
29
33
17
-31
-88
-98
-73
-23
37
70
42
-22
-80
-84
-42
17
27
-34
-108
-146
-79
2
33
54
22
-20
-14
19
39
49
71
114
140
113
80
86
134
130
54
-21
-112
-168
-150
-140
-138
-127
-101
-46
-40
-49
-21
3
57
106
104
64
27
-17
-57
-54
-35
-4
39
102
143
116
67
14
-24
-35
-64
-81
-54
15
66
39
18
21
39
94
90
19
-54
-112
-138
-114
-48
-16
-30
-34
-50
-60
-49
-29
7
27
42
41
36
42
47
55
44
10
-4
35
55
40
4
-31
-41
-49
-46
-21
28
65
41
-9
-14
19
92
224
343
345
164
-111
-325
-421
-356
-236
-162
-104
-93
-70
-32
-12
6
-13
-26
-32
-26
5
48
95
111
139
162
149
109
44
-11
-26
-27
-14
2
15
24
27
32
27
11
-10
-17
-21
-29
-25
-12
16
42
42
16
7
1
-14
4
-1
-56
-77
-43
-8
-9
-14
-13
-37
-48
-34
21
76
69
35
-7
-47
-67
-49
2
36
34
30
23
7
16
13
-4
-21
-2
62
99
115
114
77
6
-52
-81
-138
-173
-164
-151
-145
-137
-112
-88
-36
12
60
100
91
85
87
75
65
62
44
31
38
46
44
38
30
11
-6
-9
-12
-22
-31
-33
-26
-19
-21
-8
-12
-31
-14
31
48
19
2
-2
-6
-4
-8
-6
-8
-1
3
-4
-9
-14
-17
-7
12
11
6
12
21
25
12
1
-6
-24
-22
-17
-16
-1
-4
-12
-14
-15
-17
-12
0
-1
3
13
7
8
8
6
17
14
29
36
16
13
6
-7
-36
-52
-57
-69
-53
-18
16
14
0
-9
-16
-1
22
32
22
24
47
41
11
-4
2
21
23
11
1
-6
-2
9
9
14
9
-6
-17
-37
-40
-34
-37
-37
-28
-14
4
11
7
4
4
4
14
27
16
9
14
20
19
6
-8
-11
-11
-13
-4
-3
-4
-2
7
7
-6
-4
-2
-4
-4
4
9
14
8
-11
-23
-22
-9
1
9
4
1
1
-4
-3
-6
-6
-5
-1
-7
-24
-19
-4
11
22
18
12
6
-6
-10
-5
2
2
-14
-12
2
6
9
14
22
11
12
23
16
2
-9
-12
-21
-17
-15
-19
-12
-11
-2
-3
-1
8
9
19
20
14
8
-2
-1
-1
-1
2
-2
-2
-7
-3
2
-12
-24
-19
-10
-12
-14
-7
-6
4
19
16
16
21
19
17
12
11
9
-1
-13
-15
-7
-4
-8
-2
0
-4
0
2
13
12
7
0
-9
-11
-16
-20
-14
-4
-2
-5
-9
-6
4
3
-7
-7
11
28
29
11
1
-12
-26
-24
-21
-17
-13
-2
-1
-13
-2
17
29
26
11
11
9
11
9
-6
-12
-4
2
-7
-15
-26
-24
-13
-12
-33
-62
-40
19
64
67
44
31
22
14
7
-2
-4
-12
-17
-12
-22
-27
-22
-18
-11
-5
4
3
6
5
-2
-10
-19
-19
-8
5
-1
-26
-32
-27
-21
-9
0
3
9
12
9
11
15
21
28
26
24
31
32
32
32
25
15
24
32
39
53
42
20
7
3
-7
-34
-41
-44
-36
-20
-18
-17
-20
-24
-24
-23
-27
-31
-29
-20
-9
-9
-17
-16
5
14
19
24
16
7
4
2
7
2
0
6
16
21
2
-8
-10
-24
-29
-31
-31
-31
-27
-11
-8
-6
15
21
5
4
14
17
21
23
14
1
-4
-3
7
6
6
7
4
6
-2
4
20
17
18
17
7
0
-12
-25
-39
-60
-67
-52
-14
24
39
26
10
17
20
21
19
13
12
6
3
-5
-12
-16
-15
-9
-11
-11
-11
-14
-15
-10
-5
-9
-9
-1
9
6
10
19
21
18
11
-1
-13
-3
11
11
11
26
31
16
16
17
9
2
-11
-27
-42
-45
-42
-41
-42
-32
-18
-7
4
-12
-7
6
12
22
19
31
27
28
22
13
17
18
27
36
37
26
11
-16
-36
-51
-57
-41
-37
-22
-4
5
6
0
2
-3
-3
4
1
-6
-12
-4
13
37
32
14
17
-6
-15
-17
-18
-11
-4
18
14
9
12
9
12
6
-2
-6
-10
-17
-10
9
9
5
2
5
6
-7
-14
-16
-10
7
16
7
2
-6
-21
-16
-9
-17
-14
9
24
15
-7
-12
6
11
4
-7
-2
12
11
-1
-14
-4
1
-21
-43
-37
-11
16
42
51
44
40
19
-16
-30
-39
-45
-44
-31
-12
-17
-29
-24
-4
1
2
19
32
42
42
24
1
2
14
14
16
14
3
7
8
-4
-24
-37
-38
-45
-29
-7
0
12
7
7
6
3
21
7
-13
-18
-10
11
12
7
-2
7
9
-16
-42
-51
-24
-1
4
1
12
61
62
36
43
31
20
9
-6
-9
-7
-7
-15
-22
-25
-19
-21
-23
-26
-22
-8
-4
2
13
24
24
21
24
12
-13
-21
-21
-36
-39
-32
-35
-22
-7
12
15
-4
12
47
65
80
77
57
-2
-69
-90
-93
-78
-55
-34
-29
-27
4
27
21
4
9
24
42
29
22
51
42
8
14
58
32
-12
-24
-24
1
2
-16
-34
-16
16
8
-3
5
16
16
10
-1
5
-9
-9
8
1
-3
-14
-15
-9
-17
-23
-27
-3
9
-1
1
-11
-11
-2
-21
-21
-13
-4
16
17
6
-5
-19
-55
-40
1
-6
6
40
25
2
19
37
75
75
44
14
-17
-27
-41
-29
-12
1
-7
-18
3
-11
-40
-55
-57
-6
26
-17
-26
1
69
87
62
41
17
28
-23
-35
-42
-44
-17
-41
-27
-27
-54
-23
44
66
14
-5
59
49
16
15
-2
-1
-29
-74
-33
-7
-37
5
22
27
36
13
12
-2
-17
-33
-27
2
-4
-47
-16
45
20
2
3
-4
-15
11
34
37
44
6
3
12
7
1
-6
-3
-16
-14
-41
-56
-54
-52
-2
3
-29
7
44
27
58
67
40
53
49
20
-17
-53
-82
-71
-17
22
4
-39
-28
5
26
23
-9
-4
32
9
-22
-5
14
31
25
-15
-58
-50
-27
-12
-7
-16
12
36
44
7
-50
-80
-103
-99
-79
-24
41
89
128
121
89
51
47
78
36
-17
-17
-25
-35
-44
-11
-1
12
-2
-66
-14
17
21
-28
-50
29
28
5
-17
-32
-32
19
51
-7
-52
-44
-15
-16
-11
4
15
29
12
-12
5
29
24
10
1
24
28
-2
-14
-44
-73
-80
-60
-3
52
67
44
21
-21
-13
-26
-102
-119
-80
-42
-52
1
64
57
65
56
37
18
24
24
40
79
75
88
45
7
12
4
6
6
39
48
0
-88
-157
-158
-82
37
57
53
138
201
141
8
-80
-72
-36
-6
48
63
21
-7
-8
20
-44
-143
-183
-246
-176
-22
103
183
289
372
305
118
-20
138
113
-180
-196
-72
-34
-175
-402
-390
-299
-278
-123
-24
-37
-62
-109
-121
-148
-107
71
221
166
73
36
5
104
173
117
49
102
240
208
-17
-200
-171
-57
33
145
355
395
85
-126
-180
-153
-130
-162
-120
-123
-145
-102
-31
33
124
188
202
263
314
209
75
21
-86
-160
-120
-1
100
295
438
223
24
-140
-436
-548
-452
-241
-82
41
372
447
82
-248
-194
153
246
111
-76
-282
-321
-379
-428
-364
-263
-46
59
84
154
111
134
276
374
324
162
8
-47
-80
-115
-165
-318
-355
-297
-76
133
150
178
120
65
70
171
104
-45
100
210
217
308
400
445
345
77
-132
-226
-79
38
-68
-198
-360
-385
-291
-251
-157
-7
-44
-61
-57
-89
-16
7
-36
-4
87
70
69
58
-38
-42
16
-43
-94
-6
171
375
322
175
121
22
-89
-101
71
40
-201
-141
22
-27
-184
-277
-335
-280
-60
210
310
287
403
286
-123
-399
-433
-219
26
77
54
126
242
207
36
-69
-31
110
201
135
87
191
115
-158
-282
-415
-404
-164
90
199
33
-100
-271
-364
-125
65
57
-7
25
138
248
329
304
202
95
48
4
-102
-186
-190
-136
-82
-40
73
309
355
247
241
105
-100
-178
-145
-150
-162
-64
71
44
-263
-379
-350
-272
-85
1
118
53
-45
-19
-1
85
84
51
128
256
228
158
216
199
163
84
-36
-84
-143
-221
-249
-178
-89
-68
-144
-132
-44
30
129
187
205
49
-73
-39
22
135
168
103
35
-34
-150
-191
-169
-148
21
190
154
120
131
40
11
42
19
204
501
374
-92
-466
-544
-462
-360
-233
-215
-165
-107
-73
73
127
22
16
64
67
60
29
13
29
82
162
281
311
326
312
156
82
-29
-195
-239
-238
-234
-212
-166
-168
-134
-42
24
54
52
59
45
39
72
87
13
22
213
268
127
32
52
111
104
49
-2
-106
-117
-47
-51
-26
30
-26
-220
-283
-193
-39
70
-24
-90
-171
-257
-265
-250
-139
131
612
638
362
274
14
-164
-281
-281
-214
-200
-99
-51
10
34
-2
-26
55
123
36
-42
-24
1
-2
57
138
244
258
162
109
39
-14
-47
-69
-89
-105
-90
-57
-17
-61
-97
-87
-99
-19
177
288
183
96
174
222
118
67
-11
-234
-316
-208
1
34
-82
-144
-194
-171
-87
59
139
123
147
51
-69
51
7
-79
-14
-89
-132
-215
-149
80
161
130
-7
-62
-82
-142
-112
-14
52
28
-42
-109
-148
-102
62
75
47
128
110
81
73
40
25
28
48
99
113
70
53
21
11
62
97
170
266
166
2
-5
-22
-38
-89
-175
-231
-271
-205
-152
-109
-51
-22
7
40
137
177
100
64
-6
2
113
61
-34
-142
-202
-181
-147
-90
-144
-170
-77
26
124
188
193
181
155
147
206
123
-51
-131
-186
-183
-132
-65
-12
-35
-66
-64
-9
51
97
127
95
134
188
226
336
292
99
-49
-136
-214
-226
-200
-250
-277
-271
-245
-170
-66
52
121
130
121
124
109
75
45
41
60
120
205
238
175
57
-49
-95
-91
-87
-80
-81
-128
-170
-160
-137
-81
23
80
54
41
4
-54
-40
57
162
142
70
52
56
-28
-79
-107
-169
-130
-85
-15
-2
-36
-45
-51
-1
72
155
172
210
189
36
-78
-147
-128
-92
-84
-59
-27
-8
-10
-1
-6
9
32
36
34
32
42
36
27
18
9
4
-6
4
64
99
70
122
180
123
19
-52
-94
-159
-191
-184
-142
-74
1
30
-10
-39
-50
-51
-37
-9
19
65
109
123
80
-7
-51
-60
-36
-12
-7
-7
-22
-39
-37
-30
-41
-13
33
57
65
72
69
34
15
-6
-16
-14
-39
-26
21
64
101
110
34
-54
-85
-108
-105
-85
-46
-16
11
47
59
79
77
70
84
59
12
-32
-56
-49
-23
36
44
-41
-69
-49
-57
-70
-91
-108
-84
-41
-14
11
16
26
28
15
15
21
34
46
65
55
23
19
38
84
105
77
39
-13
-60
-93
-104
-65
-29
3
26
26
27
37
59
17
-63
-109
-145
-127
-57
26
70
69
66
36
-3
-15
-4
21
57
64
35
11
-2
2
9
5
5
11
1
-6
-7
-13
-12
-13
-18
-16
-16
-24
-25
-17
-12
-4
3
6
13
16
5
-6
-11
-3
3
-13
-19
-15
-7
-7
-32
-43
-44
-33
-3
9
7
12
5
15
34
51
63
54
53
47
35
17
16
33
41
44
26
-24
-59
-85
-120
-116
-102
-71
-26
21
51
22
-4
-12
-1
17
29
51
71
74
24
-50
-99
-117
-101
-72
-24
24
46
66
73
72
72
58
31
-5
-22
-16
-10
-8
3
7
2
-4
-4
12
19
16
2
-23
-39
-41
-19
1
-4
-2
6
1
-5
-14
-21
-22
-19
-12
2
43
83
87
51
-8
-51
-71
-72
-48
-30
-18
-9
1
5
4
16
24
8
-14
-9
-6
7
20
3
-2
1
7
12
17
9
8
22
24
20
16
6
-8
-24
-29
-17
-16
-12
24
31
10
11
26
25
14
-7
-34
-49
-57
-51
-30
1
16
5
-5
-24
2
42
11
12
62
100
113
70
31
32
19
-23
-83
-123
-121
-95
-60
-36
-7
36
59
49
24
4
-26
-40
-31
-2
31
29
9
-9
-24
-27
-29
-19
12
35
41
40
5
-6
2
-36
-60
-65
-60
-36
-24
-21
-16
-7
1
6
12
13
6
-5
0
12
17
16
16
31
39
39
39
42
48
48
32
2
1
15
9
1
-12
-22
-25
-23
-12
0
11
16
2
-20
-21
-15
-12
-3
-2
-2
-6
-17
-22
0
25
29
55
63
13
-32
-67
-90
-78
-49
-23
-9
7
24
36
42
28
12
3
-9
-9
0
12
26
38
31
17
-1
-21
-26
-25
-20
-14
-17
-17
-7
-18
-46
-60
-46
-14
12
54
108
102
86
123
128
82
-4
-94
-120
-128
-89
-19
1
-5
-31
-36
-27
-40
-55
-69
-48
-29
-9
64
115
82
21
-38
-78
-57
-11
31
19
-14
-11
-1
31
79
120
77
-1
-46
-80
-72
-62
-36
-13
2
12
-4
0
0
-2
-10
-34
-29
-17
-6
19
42
43
29
20
17
20
44
81
81
105
157
128
79
39
-41
-117
-129
-88
-52
-9
24
36
30
-54
-120
-125
-112
-60
-12
4
14
5
-19
-23
-6
16
21
17
15
4
0
1
10
14
9
15
17
9
-3
-7
0
7
12
34
60
58
36
13
2
-4
-16
-27
-27
-24
-27
-18
-9
-6
-7
-7
-7
-13
-9
-3
0
2
6
4
-6
-15
-28
-41
-44
-18
13
7
-8
-21
-3
18
-31
-42
-24
-20
12
40
45
19
16
41
52
65
72
63
82
110
99
91
66
27
-28
-121
-162
-134
-89
-64
-22
5
-6
-5
-25
-39
-37
-24
-18
-18
-5
1
1
-10
-16
-12
-9
-2
6
2
-1
9
12
6
-16
-37
-31
2
17
12
22
33
60
64
37
24
26
17
-3
-11
-13
-11
-9
-12
-14
-9
-1
-4
-12
-26
-30
-26
-20
-1
17
27
14
14
15
8
2
-14
8
15
9
16
12
15
9
4
6
9
14
13
10
-7
-14
-13
-21
-16
-6
-17
-51
-62
-60
-40
-9
13
26
24
29
36
37
34
33
24
-9
-28
-12
-1
4
9
14
9
-19
-22
-29
-42
-34
-26
1
21
23
45
54
9
-17
-27
-36
-32
-32
-20
-7
4
14
12
12
17
15
6
4
-1
4
5
9
12
4
-2
-11
-11
-7
-6
-9
-7
-4
-9
-4
12
25
28
24
25
36
59
45
-3
-24
-42
-46
-45
-49
-34
-36
-33
-23
-24
-14
2
17
19
16
29
29
19
23
30
26
22
15
3
-1
-3
27
30
-21
-40
-57
-61
-57
-44
-23
-11
-3
1
18
24
32
39
34
64
57
33
49
2
-85
-139
-171
-140
-82
-14
54
77
86
92
94
94
89
51
10
-16
-21
-2
21
21
10
40
29
-34
-57
-65
-61
-77
-116
-103
-92
-79
-26
34
68
61
55
32
22
49
37
27
28
10
2
-20
-30
-23
-29
-24
-24
-24
-8
9
15
11
13
16
15
10
4
4
6
6
7
14
35
41
20
3
-11
-10
-5
-20
-12
8
12
0
-24
-22
7
36
23
-6
-9
-21
-25
-22
-3
6
14
36
27
19
-2
-29
-31
-34
-38
-42
-51
-49
-37
-14
10
32
77
98
130
147
60
-14
-18
2
14
7
31
-2
-60
-67
-89
-125
-139
-110
-51
14
21
-40
-89
-72
-4
69
36
-55
-105
-167
-89
135
271
213
126
97
66
76
78
74
6
-66
-47
-62
-105
-183
-223
-200
-89
47
70
92
123
169
233
191
125
140
41
-128
-140
-116
-153
-170
-125
-37
59
105
107
58
-2
18
11
-49
-93
-132
-147
-132
-82
-42
-21
43
72
50
57
42
29
102
210
259
241
208
62
-157
-309
-369
-282
-195
-195
-160
-20
53
-11
37
173
301
440
460
237
29
-26
-37
-87
-162
-91
-44
-47
-1
-48
-115
-108
-94
-122
-103
36
177
213
269
263
59
-1
45
-89
-282
-297
-150
-133
-244
-300
-323
-401
-375
-170
-9
49
91
163
282
303
219
183
175
233
274
172
67
10
-16
-48
-106
-79
-15
87
238
281
200
79
-58
-201
-347
-417
-382
-262
-101
67
316
431
292
155
16
-79
-19
-54
-185
-216
-143
-107
-142
-100
-2
124
362
463
279
86
-17
-65
-80
-80
-122
-135
-69
-124
-190
-173
-85
107
287
267
195
264
150
-121
-205
-142
-191
-313
-336
-253
-111
-21
30
10
59
75
9
36
30
77
259
345
153
31
-1
-154
-222
-198
-58
95
158
170
72
39
204
283
116
-22
-169
-325
-317
-235
-122
-60
-28
-21
-47
-48
-29
-27
-27
17
43
16
-14
3
27
55
118
185
196
158
109
42
24
43
52
41
-10
23
186
203
143
56
-195
-335
-360
-322
-195
-75
47
168
267
342
355
138
-97
-277
-466
-470
-375
-195
0
158
321
445
432
206
-31
-267
-412
-405
-379
-302
-211
-80
34
67
122
210
278
265
211
157
94
63
51
39
42
79
105
108
103
59
-4
-38
-26
-30
-28
44
102
60
-33
-88
-102
-104
-115
-99
-57
-37
-23
-53
-112
-92
-21
-22
-42
-17
-11
77
228
265
183
57
-102
-221
-233
-194
-180
-167
-8
170
258
251
137
25
-37
-49
-114
-208
-237
-213
-128
-34
35
63
77
126
132
75
17
-49
-58
4
77
155
118
24
-12
-21
108
279
287
251
203
72
-37
-118
-135
-62
-105
-292
-402
-362
-251
-145
-89
-10
42
50
44
24
47
67
85
48
-53
-53
16
80
82
71
88
64
91
84
40
21
7
21
27
4
-24
-27
-62
-74
-69
-3
83
51
39
-44
-114
-80
-93
-4
208
310
195
39
-97
-188
-195
-176
-66
12
75
162
148
148
172
184
292
356
160
-119
-306
-450
-475
-448
-372
-168
-51
-61
-41
24
31
-37
-51
47
166
178
71
-27
-105
-115
-52
12
37
52
83
69
65
65
87
135
160
149
90
49
-9
-57
-74
-14
155
226
170
147
231
310
227
83
16
-39
-85
-122
-221
-260
-307
-438
-448
-411
-424
-385
-246
-33
85
201
448
580
481
231
69
-100
-237
-201
-253
-263
-239
-164
-77
-77
-11
45
107
153
168
175
164
178
249
357
359
222
39
-14
99
221
236
67
-171
-307
-325
-324
-345
-319
-207
6
90
-11
-77
-123
-118
-64
21
152
153
74
54
15
12
78
66
10
-21
-54
-87
-121
-112
-1
193
442
535
304
27
-94
-178
-296
-311
-200
-65
70
178
211
148
89
-105
-306
-246
-87
7
-57
-140
-211
-210
-99
19
81
97
91
-15
-65
-46
22
201
311
332
425
467
400
236
-116
-384
-428
-422
-397
-391
-364
-316
-177
137
321
249
140
18
-115
-127
-65
18
71
64
62
64
60
111
217
213
128
71
22
-33
-87
-126
-20
160
159
140
234
257
153
79
150
109
-173
-368
-437
-425
-274
-163
-183
-196
-159
-115
-85
-66
-28
-25
-31
-12
24
46
66
135
218
280
276
243
234
256
217
65
-5
37
87
83
24
-75
-133
-140
-243
-332
-345
-243
-63
-82
-163
-201
-301
-306
-166
-9
152
331
352
256
181
65
-20
-29
12
40
27
7
24
114
148
122
111
157
264
324
286
289
296
144
-119
-327
-331
-319
-415
-432
-392
-315
-168
-84
-64
-82
-85
-90
-57
2
-27
-60
-2
246
485
547
499
408
339
254
234
167
-62
-239
-344
-449
-432
-364
-301
-209
-129
-1
39
-46
-83
-18
47
14
-4
-34
-48
8
17
49
104
143
141
110
113
97
77
76
102
102
69
76
170
274
154
-57
-233
-369
-373
-142
189
252
226
150
6
-127
-274
-346
-364
-243
-59
84
114
68
52
-2
-64
-128
-70
186
429
567
409
-6
-245
-362
-435
-362
-120
178
310
352
280
111
-14
-74
-87
-184
-286
-326
-335
-305
-283
-218
-69
61
87
95
166
234
183
102
91
89
117
162
185
162
128
125
88
75
192
223
85
211
395
208
-22
-148
-354
-480
-470
-482
-434
-375
-292
-146
41
281
433
314
-2
-129
-195
-364
-308
-41
168
268
283
213
69
-61
-12
162
299
330
285
178
4
-27
-32
-157
-185
-140
-102
-135
-186
-223
-286
-286
-296
-273
-200
-49
224
437
385
183
51
0
37
30
-1
26
21
67
143
130
73
91
144
133
74
58
31
-100
-155
-42
34
-64
-170
-177
-148
-130
-152
-162
-112
59
264
265
144
29
-175
-301
-187
-41
-74
-52
65
58
49
4
9
22
14
94
123
145
158
151
133
165
224
292
516
594
220
-224
-526
-744
-695
-492
-300
-117
137
463
410
38
-277
-481
-490
-333
-132
6
34
17
-46
-80
25
208
364
327
155
152
352
402
228
113
-9
-201
-132
175
164
-48
-66
-108
-169
-108
-102
-195
-231
-214
-170
-135
-151
-149
-118
-50
4
37
72
132
279
407
332
116
2
-51
-29
97
168
184
193
142
-29
-145
-154
-164
-168
-123
-17
64
56
1
28
-49
-160
-93
0
29
-35
46
198
244
107
-203
-382
-455
-455
-401
-292
-107
67
132
75
57
57
64
110
150
148
148
369
606
664
552
222
-67
-260
-300
-191
-146
-82
-34
-73
-201
-284
-176
-99
-166
-170
-98
-29
29
-29
83
379
357
92
-146
-287
-291
-210
-115
-60
16
132
224
261
225
177
64
-50
-52
-14
51
78
112
99
24
112
218
117
-50
-135
-259
-367
-337
-249
-170
-152
-175
-185
-80
122
205
190
252
292
176
84
34
-20
-10
51
170
92
-176
-311
-272
-135
-27
118
199
60
29
19
-158
-192
-202
-192
-84
11
133
155
180
166
72
11
-67
-104
-54
44
32
-2
70
125
213
269
120
-62
-138
-168
-120
-65
-37
14
126
307
332
221
78
22
157
72
-149
-269
-294
-219
-305
-355
-319
-251
-44
-8
-103
33
234
344
591
687
451
157
-164
-608
-922
-882
-694
-453
42
712
481
-236
-377
-400
-279
-46
175
435
602
678
942
862
213
142
107
-358
-536
-406
-321
-257
-153
-96
132
336
377
279
309
529
461
96
-286
-504
-612
-563
-438
-323
-217
-52
46
-106
-228
-239
-60
133
165
188
258
332
208
99
14
-136
-182
-219
-206
-147
-79
8
170
221
142
167
155
90
-13
-82
-100
-73
-30
9
150
171
66
65
153
218
210
64
-57
-97
-77
74
-31
-200
-211
-136
92
142
27
-75
-32
162
248
232
200
187
68
-293
-525
-632
-661
-400
-192
-49
-6
27
234
407
514
465
269
-37
-227
-298
-379
-309
-87
34
-60
-57
-9
13
29
47
113
79
67
102
219
414
263
-118
-352
-432
-278
-1
199
314
274
147
126
205
199
180
145
-24
-130
-140
-170
-180
-85
-67
-195
-278
-306
-304
-267
-176
-70
9
26
101
245
331
445
480
408
239
62
8
29
39
-80
-116
-111
-236
-385
-387
-263
-142
-2
7
-62
-17
-21
-74
-75
-83
-39
53
186
275
294
260
149
203
385
263
-105
-306
-359
-309
-279
-309
-289
-207
-17
21
-7
-1
-42
-47
-24
42
93
133
185
358
470
298
133
43
2
16
75
201
183
43
-46
-72
-34
11
29
2
-16
-21
-147
-371
-469
-239
51
86
-21
-138
-153
69
288
211
10
-118
-179
-214
-218
-151
-126
-155
-57
163
360
537
465
72
-264
-483
-501
-297
28
252
203
65
-72
-210
-319
-245
-129
0
156
195
250
267
237
230
248
252
210
127
2
-110
-162
-117
-42
-16
-21
41
233
425
397
214
82
134
215
17
-254
-382
-344
-221
-299
-453
-546
-581
-502
-409
-296
-184
-87
39
138
265
417
442
320
178
110
130
227
265
138
-6
-65
-70
90
405
505
395
282
48
-198
-395
-530
-520
-391
-203
-109
-54
9
-54
-141
-152
-21
187
330
466
329
21
-215
-319
-200
-139
-116
-80
65
473
648
460
332
121
-147
-332
-479
-382
-115
113
26
-202
-301
-290
-153
32
220
195
95
47
-23
-77
-72
36
102
72
-27
-126
-186
-118
21
93
72
21
60
181
451
565
392
149
-89
-65
24
-88
-238
-335
-343
-285
-222
-220
-269
-254
-82
108
193
160
94
218
177
-132
-183
-90
-41
154
407
440
257
32
-109
-130
-102
-138
-244
-249
-123
83
243
170
-60
-148
-120
-190
-197
-102
-36
40
178
304
291
205
146
106
14
-87
-100
-99
-63
-6
-11
-129
-140
47
171
208
87
-44
-92
-163
-173
-181
-163
-114
-34
84
169
227
314
527
515
34
-342
-448
-401
-133
115
32
-261
-388
-387
-277
-140
-52
60
157
190
146
132
85
26
6
-36
-31
42
240
435
384
200
64
-110
-276
-254
-150
-82
-54
-46
-21
-16
-13
-9
-22
51
244
370
301
134
42
99
161
5
-181
-215
-291
-367
-124
269
274
70
-153
-324
-315
-296
-209
-59
127
187
17
-292
-277
179
244
22
-87
19
219
179
100
-12
-75
-111
-171
3
234
293
273
146
-63
-197
-282
-223
-104
-34
19
41
62
33
41
58
62
85
2
-73
-4
95
155
155
172
241
181
60
-83
-152
-42
38
15
22
-133
-306
-69
106
-3
-254
-379
-223
-110
57
52
-196
-226
19
128
41
22
-104
-140
173
699
914
636
258
-244
-449
-295
-175
-97
-23
163
268
19
-330
-402
-413
-393
-314
-201
13
75
-4
-27
-1
-8
31
85
100
84
71
84
76
87
89
87
80
72
65
47
43
28
19
6
31
94
64
-67
-89
-32
6
150
155
15
-61
-107
-43
124
248
475
733
564
235
-87
-455
-627
-606
-461
-359
-331
-274
-218
-191
-150
-82
-33
0
21
60
77
86
94
95
118
137
137
80
-6
-39
-30
-24
109
183
92
110
127
238
454
422
213
117
67
-71
-198
-313
-390
-449
-438
-295
-135
66
267
229
181
163
47
-47
-301
-450
-416
-303
-135
-113
-23
181
267
236
305
259
92
-15
-140
-86
29
115
197
205
155
83
36
-41
-90
-116
-142
-89
-16
14
19
27
13
17
47
48
9
10
142
279
324
165
-184
-379
-470
-495
-382
-334
-228
62
407
473
272
80
-59
-70
-58
-41
29
113
99
34
39
106
303
442
385
221
88
-4
-63
-169
-553
-731
-557
-273
21
26
-22
-67
-138
-150
-188
-112
46
160
185
150
135
113
114
141
153
127
79
60
33
9
0
-17
-39
-97
-95
35
68
52
119
211
293
261
195
102
22
-59
-164
-142
-79
-65
-144
-206
-253
-267
-206
-188
-136
-76
-5
65
135
188
45
24
186
153
80
96
84
7
11
162
210
229
282
26
-258
-308
-367
-380
-340
-282
-282
-344
-358
-226
80
160
112
126
83
105
105
114
132
177
223
176
143
115
99
90
120
148
123
72
-9
-115
-170
-42
228
398
287
114
140
251
130
-127
-340
-496
-503
-421
-268
-158
-97
-61
-85
-72
9
180
425
541
260
-115
-260
-282
-224
-229
-237
-173
-110
9
41
-16
73
268
320
277
157
-21
-19
128
340
316
52
-64
-209
-377
-394
-334
-201
-70
22
47
83
156
221
281
331
406
160
-384
-536
-345
-182
-72
-2
26
9
-14
-43
-19
31
95
176
194
186
102
-7
-16
19
55
52
-25
-120
-113
19
205
327
239
61
-69
-126
-128
-112
-82
-261
-361
-268
-216
-19
41
-3
59
193
221
16
-41
-82
-132
-87
-57
-21
-17
16
63
112
160
163
125
55
-24
-61
-51
-19
34
41
79
194
238
183
40
-91
-136
-156
-142
-112
-79
-39
-4
49
85
47
-16
-58
-95
-111
-106
-85
-72
-60
-9
64
97
81
59
33
17
-1
10
97
150
132
80
-27
-118
-176
-82
70
101
227
213
30
-55
-178
-310
-353
-299
-206
-139
-87
-39
1
26
34
28
42
49
52
80
101
110
120
135
147
137
125
153
152
56
-29
-45
-25
-9
-20
-60
-67
81
239
231
97
-146
-362
-403
-312
-117
87
155
146
112
8
-33
-12
-29
-24
1
14
17
69
117
247
425
218
26
4
-228
-309
-309
-297
-173
-169
-203
-117
95
210
99
75
77
-64
-145
-168
-168
-156
-113
-59
-27
3
14
18
18
29
59
86
80
65
75
99
130
125
95
95
105
97
82
44
7
31
83
112
92
22
-42
-94
-118
-105
-82
-113
-123
15
171
181
38
-69
-76
-65
-72
-108
-123
-208
-258
-90
142
333
442
554
543
227
-68
-154
-207
-328
-409
-415
-366
-273
-178
-120
-136
-122
-55
34
122
137
42
-89
-55
38
148
331
435
336
114
-17
-155
-224
-191
-157
-49
29
82
107
77
64
31
-21
-12
25
23
21
1
-24
-22
6
31
31
20
9
31
37
2
-9
7
38
94
62
2
9
-75
-161
-17
279
362
253
168
89
-6
-152
-276
-376
-304
-149
-112
-114
-197
-276
-246
-121
-24
5
-9
-24
17
54
91
90
85
80
75
98
85
69
44
-23
-62
72
398
592
385
69
-89
-70
51
36
-60
-140
-219
-203
-108
-76
-89
-129
-219
-203
-153
-109
-54
-34
1
17
42
55
74
117
145
114
16
-34
-45
-4
62
63
46
42
33
13
54
99
35
-1
54
147
132
24
-44
-158
-270
-252
-93
54
149
188
167
151
51
-47
-59
21
132
125
109
78
-41
-127
-238
-258
-276
-357
-250
-114
-12
63
51
-57
-151
-136
13
129
31
46
100
78
23
-12
153
244
146
-29
-113
-57
-26
-28
-3
32
48
57
70
109
123
99
80
75
51
4
-37
-61
-63
-64
-67
-82
-94
-39
123
216
148
120
128
99
16
-82
-200
-271
-205
-98
46
88
16
8
-95
-314
-369
-155
195
367
168
-31
-171
-264
-188
-112
-27
7
36
94
138
188
213
195
117
51
21
-32
-54
-41
-21
8
12
16
18
4
12
32
8
-104
-204
-103
215
498
529
321
26
-197
-304
-332
-263
-3
122
-19
102
330
165
-143
-344
-547
-559
-397
-262
-124
-9
88
162
165
108
65
10
-64
-150
-60
367
685
552
205
-71
-153
-123
-110
2
105
11
-82
-53
-16
4
0
-41
-36
39
54
44
-7
-125
-135
-93
-30
11
-41
-107
-143
-65
73
141
128
46
-6
-59
-134
-114
9
84
102
129
136
266
604
731
298
-117
-332
-397
-256
-284
-306
-259
-221
-196
-270
-332
-323
-180
-57
-8
82
125
123
198
264
147
118
131
210
398
292
142
1
-169
-216
-189
-135
-126
-115
-97
-55
-17
14
46
80
112
48
-14
37
118
241
327
182
-5
-75
-82
-90
-130
-162
-196
-180
-95
32
158
159
25
-64
-94
-144
-172
-145
-27
65
94
134
254
417
322
92
-2
-170
-296
-238
-93
21
22
-21
-109
-46
13
-65
-118
-199
-211
-171
-142
-69
7
57
77
124
155
180
228
233
205
55
16
109
31
-52
-110
-135
-109
-166
-207
-197
-169
-96
72
246
273
358
328
-59
-142
-32
-74
-28
-79
-110
-93
-27
39
-19
-11
-32
-29
88
173
98
-49
-79
10
127
151
78
-48
-223
-161
117
205
220
256
152
-11
-301
-486
-344
-200
-179
-211
-188
-162
-109
-49
-3
48
51
47
-6
1
81
183
257
256
297
306
264
195
116
29
-75
-38
65
55
-24
-95
-201
-329
-307
-101
35
-1
-27
1
54
11
24
161
124
-6
-99
-90
39
25
-104
-3
145
244
364
409
364
29
-294
-370
-418
-453
-476
-465
-432
-291
-118
38
185
185
148
94
60
85
87
116
130
133
142
140
135
99
37
-6
-12
62
220
306
316
234
115
23
-186
-274
-160
-64
13
14
-114
-259
-291
-221
-9
292
443
291
-16
-278
-365
-258
-177
-127
-120
-112
-50
-54
-46
-37
-14
44
99
78
-40
-14
141
166
80
133
310
448
365
107
-31
-110
-149
-180
-193
-163
-188
-222
-259
-217
-157
-70
49
96
89
65
70
77
94
97
90
89
72
53
30
16
-8
-25
-26
-42
-42
-67
-96
-16
86
137
149
144
125
68
12
-27
-29
-46
-77
-84
-86
-75
-77
-65
-51
-39
-10
16
32
27
24
29
42
11
-52
-64
-29
-26
-80
-112
-48
100
165
160
220
349
390
125
-276
-554
-577
-393
-226
14
282
271
40
-150
-205
-165
-122
-105
-40
11
-16
-37
62
228
281
326
409
364
220
97
18
-27
-9
-28
-160
-232
-168
-82
-68
-125
-179
-193
-154
-99
-41
0
18
27
42
125
260
362
322
173
-57
-282
-330
-290
-205
-55
135
281
355
314
100
-123
-268
-309
-274
-122
143
302
241
97
-9
-113
-149
-132
-124
-122
-6
166
193
138
-37
-286
-345
-216
-89
-10
54
35
47
159
221
163
112
113
79
-14
-84
16
153
174
124
67
42
-73
-203
-228
-242
-243
-205
-159
-124
-85
-29
18
46
59
44
52
153
218
199
193
148
194
224
61
-7
-113
-216
-236
-258
-108
-34
-19
6
-37
-55
-57
23
93
80
17
-36
64
266
331
198
-50
-176
-58
112
205
140
40
-49
-102
-65
-186
-313
-319
-206
24
198
218
27
-118
-141
-161
-221
-241
-79
65
6
-75
44
152
68
111
114
-157
-281
-161
-22
32
71
143
144
176
289
287
194
117
39
-27
-86
-61
16
19
1
-21
-100
-135
-89
-34
26
17
1
-12
-30
-7
-29
-82
-162
-152
-86
-85
-19
28
80
314
487
468
339
124
-52
-194
-240
-194
-210
-188
-90
-52
6
85
89
55
5
-7
-36
-111
-200
-213
-89
8
69
72
-2
-74
-94
-65
-29
36
60
41
-4
-43
-47
-60
-29
24
52
84
109
74
26
22
42
44
80
152
4
-105
125
371
318
67
-176
-221
-36
65
-40
-215
-157
94
88
-117
-134
-19
27
0
-115
-244
-331
-350
-210
14
206
329
329
186
-2
-115
-119
-71
-24
-62
-127
-105
-87
-49
-12
10
34
49
82
90
104
115
117
107
97
99
92
85
67
44
26
7
-2
-7
-27
-56
-44
40
92
129
216
185
-46
-314
-388
-190
-22
-104
-94
75
255
398
298
48
-211
-395
-425
-365
-241
-100
4
91
132
126
128
90
59
41
98
269
264
47
-169
-244
-135
26
140
219
233
114
-60
-163
-248
-282
-229
-152
-37
7
-66
-112
-58
8
21
38
50
25
1
-19
-4
31
54
84
105
155
259
261
118
31
41
10
-80
-105
3
49
-18
-58
-119
-165
-181
-165
-103
-59
-8
25
53
61
44
31
-12
-64
-72
-12
59
102
128
152
132
89
57
5
-34
-62
-46
11
62
52
-35
-40
-13
40
171
255
222
99
-50
-181
-191
-64
-41
-75
163
192
-181
-393
-528
-585
-478
-364
-201
-37
108
191
190
153
85
72
123
163
143
144
202
234
193
90
-11
-55
-46
-32
-27
-1
30
74
208
302
219
94
-2
-26
-42
-116
-163
-205
-213
-208
-172
-42
49
125
251
247
92
-60
-121
-129
-127
-108
-93
-86
-76
-30
50
203
343
352
241
48
-133
-328
-410
-316
-189
-67
9
69
74
20
-27
-46
-14
16
3
-22
-30
-31
-20
12
53
80
108
147
152
122
69
-1
-60
-55
13
52
2
9
78
39
-17
-41
-59
-48
-15
22
19
17
9
-20
-24
-37
-64
-92
-116
-109
-93
-74
-49
-11
14
9
4
32
109
127
74
112
256
312
243
82
-109
-203
-258
-301
-231
-39
144
248
236
119
1
-107
-150
-186
-236
-224
-217
-201
-154
-85
-19
40
52
59
95
100
108
100
84
113
162
173
109
35
59
100
128
112
17
12
27
-14
-43
-60
-34
-31
-24
-24
-95
-151
-157
-130
-117
-120
-89
-31
-16
-51
-82
-77
-21
32
52
52
24
7
16
45
81
95
89
76
72
70
62
65
61
53
38
23
13
2
1
-1
-8
-12
-11
-8
-6
-2
-1
-1
-5
-9
-12
-17
-25
-27
-22
-41
-87
-107
-54
57
189
243
152
17
-94
-165
-182
-185
-125
-52
2
50
31
-11
-54
-81
-80
-34
90
193
218
179
127
75
-9
-77
-138
-132
-89
-83
-54
-26
-21
0
34
88
110
63
-19
-92
-121
-138
-142
-89
-26
21
49
47
41
35
32
30
26
24
29
26
19
21
19
17
12
2
-10
-14
-16
-22
-20
-30
-32
1
36
55
55
59
77
75
75
68
49
27
-4
-24
-39
-39
-26
-23
-32
-41
-41
-39
-34
-33
-36
-44
-70
-59
17
79
99
82
20
-22
-33
-11
44
39
-51
-180
-195
-135
-104
-67
-36
13
37
48
59
67
104
105
66
24
26
33
14
11
-21
-19
34
45
52
38
-13
-7
-10
-52
-51
-34
2
24
42
79
80
84
84
50
-11
-60
-80
-97
-97
-85
-67
-46
-22
-9
6
9
-9
-17
-24
-13
-4
-1
1
-26
-52
-2
133
218
185
107
8
-105
-160
-183
-150
-27
44
47
-1
-67
-72
-63
-42
-13
29
75
109
95
40
4
-38
-28
29
65
72
52
-3
-75
-158
-165
-44
71
114
62
-44
-77
11
155
226
172
75
0
-41
-29
-11
-19
-39
-67
-72
-67
-62
-52
-75
-101
-54
7
7
6
73
148
166
203
185
34
-69
-52
-135
-218
-160
-84
9
-7
-95
-134
-122
-73
-16
40
69
98
97
81
55
12
-18
-38
-35
-30
-10
32
78
77
22
-49
-100
-39
19
29
75
115
138
113
73
18
-19
-34
-46
-60
-117
-128
-84
-23
34
80
100
87
86
94
73
-22
-87
-113
-126
-111
-116
-106
-72
-32
1
22
14
-13
-52
-110
-79
42
77
69
107
115
115
96
15
12
79
48
22
100
169
158
60
-37
-68
-98
-135
-130
-91
-72
-46
-21
-39
-44
-40
-50
-60
-71
-62
-41
-29
-34
-50
-25
17
41
55
53
53
52
44
27
12
8
11
25
77
111
103
102
49
-36
-96
-107
-74
-52
-35
-26
-22
-24
-15
1
4
12
11
17
21
14
8
3
5
1
-5
-5
-2
-11
-52
-107
-120
-98
-31
90
127
110
123
117
112
108
111
105
53
-7
-55
-94
-105
-101
-93
-77
-64
-48
-32
-12
-5
-10
-32
-113
-175
-106
-26
18
74
87
97
92
70
67
55
46
49
53
39
27
7
-7
16
2
-44
-65
-76
-76
-53
-27
-12
-7
-7
-4
5
10
9
1
-6
-3
2
-2
-4
12
11
0
-2
-6
-1
-2
-4
2
4
4
10
16
17
15
12
12
11
2
-3
-4
-9
-12
-14
-15
-14
-11
-7
-8
-4
0
1
5
9
11
10
9
6
-1
-6
-5
-7
-8
-10
-12
-12
-12
-9
-7
-2
1
3
8
11
12
12
10
7
4
7
6
-4
-6
-6
-8
-9
-19
-26
-25
-12
14
24
21
18
17
18
16
11
11
8
-1
-4
-7
-7
-9
-9
-6
-10
-5
-1
-4
-2
1
2
-1
1
3
2
-1
-14
-24
-33
-35
-39
-47
-40
-31
-17
-6
-7
-2
7
14
16
19
32
42
44
39
33
24
16
18
14
9
7
3
7
12
13
13
13
13
15
15
14
12
8
2
-3
-12
-14
-12
-16
-25
-30
-32
-32
-25
-16
-14
-10
-6
-4
6
7
6
7
0
2
-1
-7
-9
-12
-14
-17
-17
-16
-7
-1
-1
5
3
1
6
6
3
1
-2
-4
-5
-1
7
2
-6
-7
-6
-4
-3
-4
-2
-1
7
22
21
14
14
6
6
7
4
3
-2
-4
-13
-17
-13
-11
-9
-6
0
5
10
10
10
6
2
3
5
4
5
0
-3
-2
-6
-5
-9
-16
-14
-1
21
32
12
-7
-7
12
29
33
54
58
65
50
2
-12
-72
-138
-152
-153
-122
-39
36
61
112
97
7
-6
17
21
31
39
-33
-109
-129
-94
-9
-9
-60
-60
-12
60
153
259
334
248
47
-145
-271
-248
-167
-52
49
72
46
3
-30
-46
-27
-19
-3
42
55
22
-6
-17
-22
-7
6
26
52
39
15
14
7
4
3
1
9
17
17
-11
-41
-34
-18
-3
8
4
2
2
1
1
-4
-4
-6
-11
-15
-19
-21
-14
-6
-6
-9
-1
9
25
48
53
26
1
-14
-11
-4
-16
-26
-40
-49
-28
9
40
53
89
153
147
65
-20
-100
-116
-70
-54
-82
-113
-155
-168
-127
-57
12
49
54
42
37
42
42
41
44
38
30
36
38
44
50
47
42
36
19
-7
-29
-49
-39
-7
8
13
14
11
-2
-1
4
-6
-14
8
43
37
21
7
-17
-37
-47
-43
-37
-32
-28
-18
1
27
55
45
15
-15
-35
-41
-57
-64
-58
-46
-27
-14
1
29
67
83
47
14
26
65
96
90
64
31
-35
-81
-21
15
-41
-76
-111
-152
-152
-104
-31
43
102
131
147
162
142
62
-6
-67
-132
-130
-100
-56
-6
49
77
35
-4
-16
-28
-37
-41
-34
-11
15
11
-4
-26
-45
-35
-19
-6
-1
39
116
117
47
7
-20
-66
-92
-100
-88
-9
70
64
36
4
-20
-14
-12
-2
19
32
43
64
80
82
60
-9
-61
-54
-48
-24
21
41
46
29
13
47
77
47
-7
-75
-127
-105
-72
-83
-80
-70
-70
-69
-45
16
44
39
32
-16
-64
-46
11
51
92
123
107
65
32
36
54
58
51
46
29
9
3
-4
-10
-16
-19
-27
-34
-32
-37
-39
-37
-37
-37
-35
-33
-32
-28
-22
-25
-25
-18
-9
-3
3
12
15
18
22
29
35
30
10
-1
-4
-6
-7
-8
-7
-4
-4
-1
3
9
12
11
4
-27
-53
-38
-24
2
37
21
-6
-14
-6
38
68
61
42
29
24
6
-12
-16
-11
-14
-12
-15
-17
-16
-23
-23
-22
-24
-26
-22
-14
-7
-10
-16
-26
-23
25
77
92
82
55
28
0
-20
-26
-29
-42
-59
-55
-42
-32
-22
-16
-6
6
11
13
15
17
21
21
16
6
2
9
20
16
1
-7
-8
-7
-6
-4
-3
2
9
8
9
7
6
4
-7
-14
-14
-19
-24
-29
-33
-29
-24
-22
-21
-15
-8
-7
-2
9
11
14
17
14
19
28
25
26
30
32
26
19
17
11
9
9
8
8
14
20
14
13
11
11
14
2
-11
-16
-10
-4
21
48
14
-27
-43
-40
-21
-29
-42
-42
-47
-42
-28
-17
-5
4
7
7
6
5
11
17
11
-3
-4
-4
-2
-2
2
4
-11
-13
-9
-1
16
25
43
44
9
-22
-18
4
14
-7
-39
-59
-59
-42
-19
1
6
12
25
21
20
20
11
1
-7
-11
-7
-4
-2
3
4
6
7
12
18
16
13
11
8
4
3
1
-3
-5
-6
-7
-9
-14
-16
-12
-5
-2
0
4
9
17
14
10
7
4
0
-3
-7
-14
-14
-11
-12
-17
-16
-8
-6
-4
-2
0
-1
2
12
16
12
7
7
8
6
-1
-7
-10
-8
-9
-7
-4
-3
-1
3
8
8
11
19
22
12
5
7
0
-12
-12
-6
-8
-16
-19
-12
-10
-7
0
0
1
5
4
1
3
2
-2
-1
-6
-8
-5
-12
-17
-17
-22
-12
-2
3
11
6
8
14
18
31
36
25
14
6
3
-2
-11
-11
-11
-16
-16
-14
-9
-6
-3
-1
-2
2
3
9
9
6
1
-1
0
-4
-8
-10
-10
-9
-8
-6
-2
-1
-2
1
4
10
14
14
13
8
6
1
-1
-2
-4
-7
-7
-9
-12
-7
-4
-7
-3
2
7
13
14
12
8
4
3
1
-4
-9
-13
-15
-8
-3
-4
-6
-7
-2
-1
3
6
21
48
37
16
25
0
-27
-1
7
-20
-35
-47
-59
-56
-37
-9
14
20
5
17
41
54
77
56
12
-28
-84
-69
41
120
117
46
-40
-48
-25
-45
-85
-112
-114
-95
-61
-33
-14
16
39
14
-18
-32
-21
9
34
63
55
45
65
57
14
-1
16
29
55
20
-48
-43
12
70
59
34
34
-1
-61
-88
-75
-70
-57
-41
-36
-27
-9
21
42
51
42
49
56
46
31
12
6
3
1
-12
-24
-14
13
21
-6
-16
-2
28
34
8
-16
-47
-52
-37
-30
-25
-31
-6
24
31
6
-41
-40
-27
-38
-31
-11
9
32
55
62
54
58
55
13
-23
-46
-41
-9
14
22
-24
-52
-21
-19
-39
-3
19
-24
-40
-34
-23
3
23
32
24
22
21
35
44
7
-21
-31
-41
-29
-9
36
105
125
80
29
-10
-42
-81
-100
-85
-72
-48
-35
-20
-1
18
44
27
-7
-11
-9
-5
3
4
11
21
28
22
16
20
10
3
4
7
5
-1
4
17
19
13
21
31
26
18
19
9
42
154
191
75
-54
-153
-213
-208
-180
-137
-94
-57
-26
-7
9
19
39
46
44
63
91
118
94
0
-102
-128
-67
50
119
120
164
178
72
-65
-147
-162
-122
-80
-54
-22
1
19
26
17
9
6
5
-4
-3
1
0
-2
9
14
33
63
52
47
48
32
39
91
122
75
14
-72
-155
-182
-184
-160
-130
-89
-51
-21
4
29
42
34
39
39
41
52
71
136
176
142
169
211
112
-22
-160
-240
-214
-167
-110
-110
-109
-94
-92
-60
-29
-3
7
14
14
16
22
22
18
15
18
24
34
36
39
44
47
54
55
57
55
48
42
40
39
41
58
44
1
-18
-29
-26
-8
6
11
6
1
-9
-7
-11
-15
-9
-7
-4
-8
-10
-13
-21
-26
-24
-21
-18
-12
-17
-14
-6
-7
-11
-6
-6
-6
-6
-8
-11
-19
-24
-26
-20
-13
-11
-8
-9
-6
-2
1
4
9
12
11
12
7
-3
-11
-7
1
10
7
-3
9
16
6
6
12
6
-12
-14
-4
5
17
30
37
33
21
8
7
-3
-11
-17
-30
-36
-31
-24
-19
-14
-7
-6
-11
-7
2
9
17
19
22
20
19
15
7
1
-4
1
3
4
5
2
2
4
6
10
11
12
12
2
-16
-32
-31
-24
-27
-29
-26
-21
-17
-11
-8
-6
6
14
14
12
14
22
27
27
20
22
26
10
4
5
1
-9
-11
-16
-17
-14
-14
-12
-11
0
7
8
5
2
-1
-7
-9
-6
-3
-9
-12
-12
-16
-11
-6
-6
-6
2
6
6
10
13
11
10
8
1
0
-1
-6
-6
-10
-9
7
33
26
-1
-7
-17
-19
-12
-8
4
16
4
-8
-3
-2
5
11
2
2
27
58
51
35
9
-25
-36
-29
-6
23
29
4
-25
-62
-77
-29
29
55
51
-17
-88
-67
6
76
59
-32
-77
-84
-102
-104
-64
-19
30
103
250
359
280
124
-45
-200
-295
-326
-284
-216
-142
-44
34
54
90
114
84
49
16
5
27
67
113
111
49
17
8
9
1
-16
9
81
166
135
75
72
46
-6
-85
-115
-93
-57
-16
14
46
3
-74
-124
-157
-161
-138
-122
-110
-69
-37
-19
8
45
58
46
79
109
90
49
8
-4
-11
-11
6
16
27
29
22
24
36
49
52
57
67
70
74
56
32
11
-21
-49
-72
-24
30
-31
-72
-26
5
9
-1
-11
-35
-30
28
42
2
-35
-75
-107
-107
-104
-79
-51
-41
-24
-2
28
45
53
57
50
49
50
41
35
22
20
50
91
122
80
49
74
95
115
91
55
27
129
266
208
44
-137
-277
-375
-371
-280
-220
-164
-158
-219
-301
-296
-200
-121
-44
79
203
200
155
223
312
278
208
142
45
-62
-124
-204
-228
-122
-116
-105
-26
104
222
215
251
170
22
8
-24
-70
-97
-48
12
17
10
-72
-107
-65
-41
-14
-18
-18
-2
15
51
104
132
105
85
67
46
33
17
14
3
-8
-17
-32
-31
-21
-9
-2
0
6
26
62
70
51
-6
-64
-65
-52
-34
-39
-68
7
104
125
137
94
2
-112
-174
-206
-270
-198
-36
114
147
58
30
-55
-213
-225
-60
105
175
143
46
-53
-126
-137
-134
-98
-54
-19
44
85
133
169
160
122
87
158
248
151
-14
-75
-47
-28
-119
-224
-255
-179
-52
11
17
51
276
486
362
54
-189
-286
-295
-292
-175
-26
-9
-95
-183
-201
-179
-95
31
94
152
347
586
559
289
26
-188
-303
-276
-204
-77
132
255
205
68
12
12
-52
-114
-177
-142
-26
-67
-220
-256
-80
55
25
-94
-295
-412
-389
-207
92
382
566
550
398
164
-59
-145
30
244
231
140
41
-77
-206
-226
-130
-71
-42
19
30
31
86
23
-66
-175
-289
-297
-286
-176
64
311
398
337
216
87
-34
-160
-213
-203
-148
-27
71
92
47
-4
-34
-21
94
259
369
297
114
-94
-212
-238
-297
-287
-263
-194
-107
-34
61
80
79
70
205
332
269
192
247
238
54
-44
-108
-135
-105
22
228
393
408
142
-136
-347
-526
-614
-572
-413
-279
-203
-173
-106
-57
-36
42
126
184
201
207
186
135
107
102
70
29
25
74
228
330
329
290
124
-62
-198
-318
-277
-87
21
107
176
110
-26
-132
-27
107
80
39
-72
-196
-220
-195
-168
-168
-206
-221
-109
-35
-82
-131
-45
104
140
176
173
167
135
44
16
40
125
113
110
133
21
-80
-166
-110
106
209
125
-99
-179
-33
57
34
-65
-178
-234
-206
-135
-69
-13
16
52
120
163
134
184
276
211
102
11
-82
-95
-59
-38
-23
-19
-68
-159
-208
-133
-3
81
98
15
-94
-59
31
75
113
122
129
108
46
-19
-75
-98
-108
-147
-191
-115
32
140
271
370
336
205
59
-31
-120
-244
-354
-417
-443
-418
-279
-141
-57
-11
5
69
199
405
591
615
501
365
238
92
-21
-77
-124
-202
-362
-466
-498
-516
-406
-270
-120
28
79
130
128
70
122
229
301
331
290
191
101
51
4
-70
-148
-170
-67
69
59
-52
-162
-236
-190
-99
-62
-53
-15
24
54
95
102
92
145
264
322
317
309
208
63
28
37
39
-92
-334
-425
-468
-491
-440
-380
-326
-301
-271
-151
90
390
546
385
219
120
114
200
168
140
74
46
48
41
43
-19
-71
-118
-140
-93
57
199
155
24
-86
-177
-207
-192
-178
-148
-102
-73
-31
52
121
210
324
275
115
49
-34
-160
-173
-152
-193
-186
-27
104
162
190
138
79
24
-24
-52
-63
-91
-40
135
257
277
228
163
221
265
127
-110
-373
-586
-698
-672
-557
-369
-153
-90
-55
85
370
574
528
408
292
243
120
10
-46
-144
-224
-311
-300
-271
-217
-120
-22
55
92
186
275
258
162
79
100
165
147
94
49
19
-4
-79
-100
-113
-143
-99
-36
-9
-41
-81
-113
-93
-29
11
49
120
245
314
249
198
191
123
52
39
70
73
69
125
23
-313
-673
-873
-907
-740
-414
-134
111
82
-92
-99
-108
-30
201
562
816
750
622
473
205
-14
-94
-132
-166
-185
-205
-207
-189
-155
-81
31
100
75
57
65
79
85
82
101
89
54
16
-32
-75
-122
-158
-171
-145
-83
-2
24
1
14
10
4
6
3
0
4
14
7
17
21
26
44
49
43
32
19
9
4
5
9
4
6
8
16
37
11
-29
-41
-64
-65
-67
-68
-37
7
47
49
24
-1
-7
0
-13
-25
-21
