203
162
12
29
102
55
129
198
124
29
-101
-185
-174
-201
-185
-69
-21
49
206
291
220
254
349
303
209
153
153
12
-191
-323
-446
-618
-786
-890
-832
-550
-141
402
837
1176
1322
1071
544
154
90
-47
-290
-473
-428
-304
-380
-521
-395
-188
84
485
608
654
618
462
277
-183
-455
-332
-273
-289
-210
-41
27
-32
-128
-190
-316
-402
-322
-146
78
206
342
398
322
252
292
277
34
-304
-546
-434
-195
85
276
384
471
302
49
-190
-198
-149
-206
-179
-177
-147
-129
-104
-82
-75
-51
-47
-29
-25
-8
-10
-14
-25
-87
-175
-215
-195
-203
-249
-337
-268
-17
239
539
680
714
861
824
526
24
-694
-1149
-1142
-985
-618
-45
639
1253
1560
1515
1126
616
69
-249
-249
-339
-445
-502
-536
-555
-533
-429
-360
-276
-212
-148
-82
-93
-228
-340
-292
-228
-69
119
241
258
228
253
133
9
51
257
455
536
549
430
151
-172
-248
-243
-242
-224
-225
-196
-194
-168
-156
-143
-137
-132
-163
-230
-247
-326
-383
-317
-270
-241
-191
-26
246
433
577
703
622
594
670
401
34
-366
-648
-761
-779
-557
-478
-289
175
652
996
1266
1540
1471
952
479
360
198
-211
-703
-871
-836
-837
-745
-700
-719
-731
-680
-650
-524
-271
112
536
781
956
910
560
102
-120
-172
-201
-148
-138
-209
-279
-202
-27
131
143
107
60
-117
-342
-524
-509
-211
198
526
725
746
524
190
-86
-252
-375
-602
-548
-171
31
203
337
476
613
740
877
733
445
136
-89
-306
-415
-302
-275
-334
-309
-273
-335
-455
-506
-355
-175
-161
-54
158
254
425
477
395
386
133
-253
-442
-379
-246
-284
-306
-357
-578
-791
-848
-612
-268
213
793
1192
1532
1729
1570
1116
314
-506
-905
-1150
-1170
-878
-483
-85
255
601
785
703
376
218
293
186
21
-109
-391
-886
-1074
-1043
-937
-639
-298
121
299
343
349
122
-192
-206
21
269
538
702
786
590
140
-268
-376
-420
-362
-128
3
159
102
5
-153
-350
-231
-97
168
442
496
403
300
324
180
-75
-226
-191
48
203
102
117
122
-65
-234
-444
-601
-706
-584
-380
-128
324
650
738
634
615
628
281
-132
-372
-518
-508
-523
-385
-163
-158
-202
-252
-268
-299
-407
-588
-652
-445
-253
-93
145
456
861
1201
1485
1496
1015
483
118
-186
-302
-351
-362
-392
-562
-622
-592
-557
-557
-476
-349
-254
-75
62
204
405
627
803
944
1064
850
281
-182
-380
-529
-561
-606
-588
-340
-194
-97
25
123
110
-208
-591
-631
-657
-705
-531
-237
198
660
1117
1415
1508
1417
992
365
-226
-610
-679
-525
-386
-258
-173
-19
157
125
67
-120
-299
-343
-448
-516
-484
-435
-385
-299
-211
-37
120
132
216
343
256
204
331
456
546
440
238
-6
-263
-405
-398
-183
94
258
367
398
321
200
-125
-369
-415
-437
-473
-438
-322
-271
-174
-146
-159
-143
-113
11
215
479
664
728
856
867
586
219
-21
-155
-356
-612
-1019
-1233
-1091
-794
-223
406
1006
1385
1490
1437
1042
246
-444
-594
-625
-470
-194
-31
57
-63
-191
-291
-393
-445
-426
-360
-280
-221
-196
-153
-185
-289
-335
-337
-367
-296
-85
191
463
684
802
712
356
-128
-359
-483
-511
-212
210
632
908
978
746
215
-182
-173
-40
120
234
142
67
-7
-181
-431
-624
-664
-601
-520
-447
-300
-76
112
223
245
116
-49
-142
-155
-96
130
454
708
833
751
634
412
113
-100
-278
-364
-486
-599
-660
-751
-779
-524
-105
228
465
509
357
172
-21
-191
-209
-117
69
234
461
655
573
475
310
46
-220
-417
-456
-423
-335
-285
-301
-302
-153
-2
47
74
79
105
173
314
292
16
-326
-434
-423
-430
-110
279
495
677
799
674
195
-339
-548
-493
-403
-277
-120
57
163
223
196
17
-57
-17
59
90
2
-34
3
12
115
226
125
-87
-397
-692
-724
-644
-451
-158
187
658
954
991
653
35
-224
-344
-413
-165
153
384
469
501
407
152
-137
-281
-287
-349
-316
-235
-189
-134
-181
-213
-148
-195
-190
74
322
411
355
295
225
-55
-293
-356
-287
-92
51
192
288
167
10
-123
-97
98
131
148
168
-27
-193
-195
-287
-200
52
158
285
368
334
163
-100
-322
-349
-315
-335
-264
-161
-62
-1
-13
-36
-48
-141
-225
-172
-79
24
234
476
548
536
592
553
332
25
-230
-335
-369
-334
-256
-136
-25
13
-24
-123
-214
-294
-296
-209
-195
-260
-282
-291
-188
-35
147
429
609
767
831
739
529
183
-77
-133
-75
-41
-27
-42
-103
-140
-195
-314
-492
-726
-818
-678
-496
-237
34
312
578
632
628
656
561
226
-66
-278
-384
-355
-339
-145
28
251
606
866
916
596
122
-173
-390
-834
-1099
-1051
-968
-634
-168
308
656
842
977
853
554
157
-136
-171
-209
-219
-211
-196
-145
-160
-145
-135
-147
-181
-243
-226
-165
-92
-27
25
50
22
-37
-112
-262
-400
-443
-427
-288
-31
354
732
975
1078
987
696
181
-341
-645
-721
-644
-405
-152
-34
112
238
335
345
212
128
113
77
-42
-192
-342
-267
-120
-120
-36
17
-81
-226
-249
-287
-236
6
378
809
1132
1262
1086
688
135
-226
-616
-884
-801
-972
-908
-721
-536
-147
191
551
692
731
670
435
70
-277
-387
-485
-533
-460
-296
-154
-108
-49
55
143
163
177
93
-2
-31
-71
-100
-117
-117
-127
-99
-44
-27
-47
-47
26
80
65
176
343
384
345
78
-275
-514
-685
-778
-721
-460
-42
579
1174
1549
1574
1232
829
557
304
21
-166
-369
-470
-446
-416
-427
-490
-539
-486
-407
-450
-538
-709
-787
-839
-862
-643
-252
243
682
1136
1498
1592
1313
863
553
226
-53
-292
-468
-481
-444
-387
-357
-341
-327
-363
-455
-610
-864
-924
-676
-409
-42
359
636
864
1034
1030
935
693
413
447
422
335
135
-171
-422
-666
-699
-691
-624
-539
-406
-276
-219
-64
-93
-279
-432
-417
-91
289
639
982
1149
1087
953
759
401
53
-362
-544
-443
-417
-362
-378
-340
-317
-414
-608
-751
-693
-525
-237
148
574
820
942
950
770
463
100
-114
-244
-367
-528
-726
-831
-817
-747
-577
-214
142
491
820
1038
1127
967
632
339
176
-70
-367
-491
-645
-911
-1019
-1030
-857
-509
-138
363
855
1228
1470
1520
1292
846
292
-176
-361
-445
-503
-457
-376
-311
-273
-224
-200
-254
-291
-318
-439
-522
-526
-483
-403
-285
-74
120
299
493
637
688
606
427
236
64
-41
-62
-77
-105
-140
-163
-176
-181
-155
-140
-119
-80
-57
-27
17
3
-154
-417
-639
-756
-837
-877
-649
-54
575
1125
1634
1949
1928
1419
769
348
59
-233
-591
-843
-841
-793
-756
-652
-538
-317
-85
108
218
192
77
-211
-526
-725
-824
-884
-583
-24
438
858
1114
1413
1533
1368
1106
705
354
-89
-435
-572
-649
-606
-544
-474
-418
-401
-369
-329
-289
-230
-201
-191
-167
-120
-64
-27
3
19
32
42
56
74
82
70
57
42
-5
-46
-74
-112
-105
-56
-30
16
102
167
185
153
26
-122
-190
-220
-176
-55
75
278
507
673
726
630
524
356
102
-126
-400
-577
-526
-400
-238
-92
51
152
227
285
166
26
-59
-143
-176
-181
-162
-118
-89
-171
-240
-289
-357
-324
-317
-229
-26
179
319
338
371
319
209
137
115
206
273
303
302
236
72
-151
-230
-213
-218
-227
-231
-238
-228
-205
-188
-147
-100
-54
-33
-13
61
95
57
-4
-53
-62
-62
-26
62
175
246
271
279
265
208
77
-2
12
36
10
-46
-79
-121
-123
-144
-187
-168
-163
-118
-100
-142
-119
-43
-9
-47
-34
7
22
32
149
399
541
559
500
430
412
311
155
-43
-317
-508
-591
-606
-498
-331
-130
49
177
256
209
120
-51
-119
-74
-129
-178
-220
-179
-128
-70
21
93
168
173
151
94
-16
-156
-280
-299
-264
-188
-17
156
294
399
457
388
255
196
57
-33
-63
-203
-293
-324
-343
-306
-187
-82
-33
13
84
159
216
280
297
229
127
16
-46
-48
-107
-197
-206
-130
-37
75
150
154
145
143
128
100
33
-111
-206
-232
-211
-162
-114
-63
9
93
102
95
75
59
28
-79
-252
-392
-385
-380
-311
-166
63
385
627
778
696
424
95
-299
-579
-532
-304
-50
253
529
702
652
474
192
-67
-215
-453
-517
-418
-233
-25
47
153
160
14
-110
-205
-329
-312
-224
-176
-54
57
135
132
159
200
170
60
-146
-185
-163
-185
-203
-206
-154
-107
-3
112
209
252
247
286
291
259
143
-6
-85
-173
-259
-307
-315
-271
-190
-102
1
108
166
207
241
234
178
28
-111
-128
-102
-93
-51
31
21
-80
-165
-89
89
216
357
513
680
699
465
220
2
-215
-420
-481
-410
-467
-470
-378
-300
-238
-189
-117
-62
-19
-1
94
200
247
346
395
340
256
162
2
-205
-307
-277
-186
-132
-85
11
72
81
123
189
157
95
55
34
11
-80
-170
-247
-308
-359
-377
-359
-375
-327
-158
70
316
554
721
715
534
266
79
-45
-165
-182
-137
29
202
319
357
226
6
-202
-237
-191
-150
-156
-143
-53
-22
-47
-132
-237
-282
-225
-129
-77
-91
-118
-118
-88
-105
-211
-244
-241
-167
-39
120
287
332
362
462
599
543
413
338
212
0
-269
-433
-471
-325
-166
31
315
483
536
472
326
76
-174
-302
-329
-311
-277
-239
-253
-288
-312
-339
-352
-297
-186
-76
39
181
258
210
140
87
-24
-131
-170
-120
22
145
257
399
474
395
244
158
73
-46
-157
-259
-321
-311
-302
-297
-232
-112
39
187
267
309
314
196
34
-39
-14
4
31
72
42
-26
-89
-162
-196
-164
-102
14
87
84
74
66
65
47
14
-12
-38
-78
-132
-225
-357
-398
-345
-268
-154
-4
151
344
537
530
423
344
216
152
180
166
100
9
-56
-22
4
-21
-33
-92
-161
-170
-165
-152
-129
-138
-136
-137
-157
-136
-125
-126
-112
-100
-100
-129
-162
-147
-79
19
122
196
269
319
311
285
246
200
148
107
59
-17
-110
-233
-294
-248
-183
-94
13
46
67
95
59
-27
-129
-150
-63
-3
-1
35
117
167
201
201
148
73
2
-32
-33
-47
-51
-18
-12
-52
-82
-80
-131
-189
-190
-153
-83
-20
42
103
158
218
208
109
18
-9
14
37
51
22
-44
-107
-186
-173
-105
-79
-31
-14
7
64
39
32
88
98
65
36
40
36
-2
-54
-80
-108
-182
-215
-159
-68
-14
22
92
164
254
321
261
139
-5
-128
-152
-153
-148
-88
-22
82
201
239
170
9
-97
-134
-144
-93
4
110
128
118
56
-48
-138
-225
-193
-153
-137
-50
43
109
157
178
143
92
61
20
-29
-32
2
20
6
-21
-32
-57
-72
-57
-76
-107
-133
-129
-86
-26
12
15
-17
-47
20
104
128
137
115
92
123
113
-3
-189
-312
-340
-321
-181
6
200
367
458
495
446
322
103
-101
-153
-176
-197
-235
-294
-296
-268
-193
-89
16
119
214
241
180
122
46
-59
-99
-65
-19
-2
8
17
12
-10
-75
-104
-86
-73
-46
-21
-14
-19
-37
-53
-44
-41
-24
-7
6
55
123
196
220
211
165
44
-112
-279
-401
-412
-329
-206
0
261
496
603
594
486
259
55
-94
-177
-171
-148
-130
-130
-143
-138
-121
-104
-75
-53
-41
-30
-26
-8
7
3
-7
-18
-32
-48
-64
-67
-59
-52
-67
-70
-26
28
36
-16
-94
-135
-102
-58
44
170
234
331
334
168
-24
-158
-217
-216
-148
2
158
284
372
360
267
121
-51
-149
-158
-141
-115
-77
-34
-17
-21
-14
-6
-29
-51
-91
-151
-152
-136
-121
-89
-22
65
100
115
117
80
7
-81
-135
-130
-119
-116
-101
-58
-10
13
36
69
113
163
191
218
190
87
9
-57
-63
-55
-75
-69
-42
9
20
17
11
-39
-130
-208
-200
-156
-87
30
142
241
315
350
341
220
66
-7
-21
-50
-83
-87
-114
-121
-110
-113
-93
-69
-62
-52
-62
-56
-37
-41
-14
4
-12
-20
-25
-16
-28
-32
-27
-43
-17
27
53
77
79
61
39
27
21
10
3
-13
-21
-21
-16
9
16
-16
-39
-29
-14
26
56
33
26
49
49
4
-67
-109
-90
-43
10
47
109
175
201
214
178
85
-39
-165
-210
-169
-115
-82
-76
-64
-38
-52
-41
14
64
109
112
109
94
94
77
-6
-38
-34
-41
-60
-83
-118
-140
-141
-157
-161
-155
-123
-66
26
128
207
259
236
130
59
47
-8
-47
-6
34
77
120
122
128
105
34
-36
-92
-113
-104
-93
-94
-112
-115
-111
-145
-166
-190
-206
-145
-60
10
63
127
175
160
124
84
57
43
48
65
93
147
175
166
134
70
-41
-98
-79
-102
-108
-37
12
24
13
-24
-37
-51
-51
-87
-147
-146
-132
-100
-56
2
39
42
26
-54
-134
-178
-158
-29
129
291
422
470
432
270
122
14
-170
-265
-253
-198
-84
5
57
82
61
-28
-127
-176
-169
-100
-21
11
-23
-65
-117
-191
-200
-162
-133
-69
39
115
122
130
211
268
279
332
370
307
155
63
-11
-140
-248
-317
-312
-228
-92
9
52
102
91
12
-47
-107
-153
-118
-46
7
24
34
-7
-70
-79
-109
-110
-72
-7
85
145
174
188
178
72
-92
-229
-257
-231
-205
-89
41
130
193
246
279
247
144
-16
-104
-102
-52
59
135
172
185
196
199
173
102
-49
-152
-221
-309
-317
-231
-164
-176
-248
-261
-198
-128
-22
74
223
311
349
438
447
392
209
12
-135
-222
-193
-198
-180
-162
-138
-62
-29
10
27
7
-1
-32
-70
-77
-65
-49
-31
-19
-1
-4
-40
-73
-73
-58
-64
-29
27
63
92
119
151
163
149
107
44
-9
-37
-90
-154
-140
-99
-69
-14
49
105
144
147
113
116
55
-69
-154
-203
-210
-214
-183
-170
-127
-42
52
160
195
203
213
222
224
229
245
218
162
118
39
-74
-158
-178
-144
-110
-86
-55
-44
-78
-137
-201
-224
-187
-130
-68
14
107
158
170
159
97
46
-30
-150
-193
-176
-133
-77
-35
14
67
139
170
137
122
74
-59
-168
-171
-152
-118
-26
105
218
256
274
235
124
-79
-321
-411
-346
-248
-112
77
219
262
294
347
305
150
-16
-111
-118
-101
-73
-18
12
31
57
69
78
44
-45
-121
-155
-175
-190
-196
-185
-128
-65
-8
26
36
65
99
112
87
99
90
26
-1
4
-12
-59
-89
-132
-118
-92
-65
21
24
-26
-57
-70
-107
-122
-27
176
388
499
547
534
496
360
83
-157
-281
-292
-281
-273
-248
-228
-190
-166
-150
-127
-102
-76
-46
-31
-39
-42
-32
-6
-14
-55
-99
-135
-128
-70
-19
11
67
154
254
323
364
342
232
90
-41
-64
-70
-85
-49
-14
7
-4
-12
-11
-41
-72
-79
-96
-105
-106
-107
-87
-60
-29
-5
-42
-123
-115
-92
-98
-66
-7
107
206
265
324
321
193
39
-57
-76
-30
28
90
117
145
147
77
26
-28
-149
-298
-354
-275
-196
-143
-80
-50
-65
-103
-62
14
44
70
84
120
157
186
187
166
133
65
37
41
95
137
112
35
-49
-95
-136
-165
-205
-208
-191
-156
-75
-21
2
34
79
106
85
54
41
3
-41
-78
-107
-96
-75
-42
-37
-54
-23
-19
-33
19
75
94
101
98
104
94
52
37
38
42
51
46
22
-17
-31
-25
-24
4
-11
-65
-74
-80
-99
-163
-272
-341
-295
-216
-123
24
138
239
330
434
504
449
374
368
332
276
172
6
-100
-265
-352
-394
-391
-256
-158
-42
-36
-50
19
39
34
-31
-143
-208
-178
-111
-29
66
136
152
154
173
160
59
-57
-170
-329
-410
-400
-389
-329
-186
20
195
322
438
432
307
180
105
77
54
46
84
138
195
242
179
72
-19
-83
-166
-242
-264
-325
-279
-158
-54
10
-64
-207
-337
-329
-252
-116
81
292
575
741
784
690
450
166
-128
-338
-461
-387
-205
-85
2
44
85
79
67
56
-34
-138
-201
-232
-254
-263
-317
-364
-341
-254
-99
53
234
362
388
380
255
50
-160
-343
-375
-241
-26
186
324
374
326
278
233
105
9
41
75
53
84
112
67
-26
-171
-296
-373
-452
-466
-416
-314
-132
64
256
381
435
434
349
195
4
-138
-227
-270
-250
-173
-72
28
104
83
-65
-159
-134
-160
-54
122
145
83
34
72
122
254
298
279
362
344
276
183
134
15
-201
-317
-406
-420
-392
-360
-288
-157
-1
78
125
153
176
108
-41
-120
-154
-165
-153
-76
31
87
133
186
236
190
110
79
2
-85
-132
-158
-304
-417
-330
-263
-161
16
226
348
339
350
236
130
-68
-301
-191
-29
134
293
426
488
314
26
-203
-251
-266
-187
4
152
238
241
228
168
92
-69
-351
-443
-319
-166
-77
-105
-305
-576
-648
-604
-494
-168
205
551
815
975
1060
962
729
338
-55
-380
-619
-747
-785
-680
-556
-363
-127
95
307
461
504
425
299
115
-92
-275
-415
-405
-316
-217
-48
116
201
330
487
488
352
58
-237
-363
-382
-305
-107
135
301
322
210
99
-23
-87
-152
-210
-171
-113
-12
49
34
-128
-283
-303
-265
-52
135
269
467
583
620
554
390
168
-6
-162
-437
-569
-481
-432
-384
-248
-130
-67
3
109
135
116
50
-36
-6
-21
-46
-108
-126
-55
-65
-70
-60
2
70
180
277
256
263
249
134
-62
-264
-352
-364
-358
-229
-25
216
470
545
527
496
288
-89
-305
-322
-279
-118
80
279
392
322
114
-58
-127
-155
-272
-469
-455
-432
-413
-280
-99
67
128
213
166
103
87
-2
9
118
201
221
145
24
40
81
-16
-102
14
196
309
370
303
193
-1
-142
-104
-157
-215
-225
-271
-262
-210
-184
-190
-152
-108
-110
-116
-120
-115
-118
-110
-62
7
119
224
273
337
260
-3
-139
-130
-72
51
200
276
248
195
168
145
76
-24
-180
-319
-307
-180
-81
-11
1
-45
21
135
220
217
185
194
193
178
114
44
-33
-64
-70
-137
-253
-355
-329
-324
-329
-224
-135
-95
-205
-372
-396
-349
-254
-118
170
583
842
977
1110
1090
851
360
-170
-344
-366
-402
-385
-321
-233
-154
-119
-150
-156
-205
-227
-178
-79
22
11
-64
-206
-306
-390
-483
-443
-146
222
467
668
770
731
553
285
62
-7
-51
-115
-147
-102
1
-7
-112
-226
-257
-293
-287
-245
-228
-104
-22
21
135
210
188
122
46
13
22
-16
-63
-36
-49
-146
-203
-181
-69
59
115
150
168
175
150
60
-81
-210
-196
-133
-33
116
184
160
138
140
75
-18
-30
61
127
160
116
51
-32
-215
-331
-418
-316
-14
170
297
438
516
509
404
167
-110
-271
-305
-302
-331
-304
-285
-317
-291
-276
-238
-206
-110
66
175
267
281
277
311
311
155
-16
-194
-439
-372
-224
-216
-130
-12
47
55
72
-21
-187
-45
164
204
188
183
228
181
191
338
572
617
584
668
606
433
-121
-766
-985
-952
-842
-728
-546
-350
-203
-68
145
385
470
455
455
377
258
163
25
-52
-168
-233
-254
-468
-721
-832
-726
-610
-418
-175
201
618
846
1156
1328
1290
1062
789
490
87
-264
-617
-817
-885
-834
-686
-501
-253
-74
-88
-254
-397
-555
-766
-694
-384
18
518
867
1008
1010
886
516
165
18
51
201
221
288
260
95
-145
-379
-497
-586
-533
-449
-350
-282
-151
-3
2
3
47
193
289
264
171
114
61
-47
-91
-39
36
4
-6
18
79
171
117
-61
-283
-456
-557
-554
-586
-448
11
396
729
943
999
916
692
352
-75
-212
-211
-231
-199
-250
-379
-600
-652
-572
-557
-385
-142
-30
59
276
501
561
417
204
163
34
-78
89
288
455
495
364
193
69
-128
-331
-341
-307
-299
-283
-268
-360
-477
-486
-511
-392
-180
96
407
558
664
682
613
500
273
46
-4
-103
-256
-417
-592
-572
-586
-537
-379
-227
-17
253
518
501
285
196
170
122
136
103
193
349
352
311
105
-145
-320
-503
-511
-325
-204
-53
112
115
27
-151
-175
-73
7
135
256
461
592
539
444
302
35
-258
-451
-528
-551
-511
-338
-236
-127
40
155
181
153
278
169
-101
-148
-243
-286
-392
-369
-90
77
312
628
874
834
697
620
432
193
-111
-306
-377
-435
-505
-541
-496
-468
-421
-370
-291
-212
-177
-227
-430
-602
-620
-624
-523
-135
312
703
1050
1331
1523
1478
1150
800
532
168
-365
-982
-1356
-1489
-1411
-1100
-675
-6
722
1235
1484
1476
1171
631
147
-226
-402
-440
-486
-473
-345
-200
-209
-259
-292
-277
-221
-183
-164
-150
-143
-195
-253
-271
-223
-227
-280
-349
-468
-435
-231
80
429
731
1083
1356
1404
1129
630
66
-616
-994
-985
-854
-427
54
403
606
542
287
3
-432
-823
-757
-518
-89
334
623
786
726
591
349
173
-50
-236
-279
-336
-387
-414
-403
-382
-308
-210
-155
-97
-42
-69
-191
-314
-385
-559
-820
-884
-599
-185
216
741
1331
1779
1864
1641
1383
1018
506
-7
-508
-779
-834
-850
-763
-625
-569
-669
-826
-856
-782
-644
-442
-223
59
399
717
795
843
891
702
621
564
471
483
471
335
145
24
-169
-309
-395
-577
-571
-483
-480
-465
-481
-472
-440
-377
-248
-112
12
157
292
354
382
326
196
102
-6
-102
-179
-205
-174
-158
-105
-77
-39
67
153
204
236
279
228
128
67
-58
-129
-124
-90
-22
58
125
160
167
113
36
-62
-182
-441
-662
-662
-625
-475
-133
292
657
889
1017
1038
932
658
155
-307
-551
-685
-571
-379
-178
86
260
359
360
301
175
39
-109
-251
-316
-322
-314
-325
-311
-282
-231
-213
-244
-218
-122
-39
42
155
266
341
374
374
306
184
73
3
-62
-130
-140
-115
-108
-101
-84
-80
-85
-77
-57
-74
-95
-67
-57
-49
-38
-37
-25
-2
37
72
122
217
288
264
231
209
157
108
55
-14
-32
-26
1
41
33
16
-27
-85
-119
-146
-175
-174
-150
-140
-155
-192
-223
-181
-135
-120
-69
-1
122
195
195
238
299
333
296
226
174
164
164
50
-84
-110
-120
-189
-270
-337
-338
-289
-261
-191
-84
65
232
306
319
314
259
166
89
-12
-136
-198
-176
-117
-88
-81
-47
2
12
12
13
34
66
54
36
2
-18
-26
-25
-29
-80
-139
-195
-221
-223
-217
-172
-79
23
137
258
345
412
413
336
238
138
24
-59
-130
-239
-304
-282
-204
-122
-49
31
93
120
126
122
122
92
39
10
-41
-102
-142
-157
-166
-160
-101
-6
94
170
220
243
232
194
142
77
8
-77
-157
-163
-203
-261
-248
-167
-109
-138
-93
-2
66
142
203
246
279
270
216
134
19
-39
-85
-120
-117
-124
-107
-91
-82
-70
-60
-54
-60
-78
-80
-49
-26
-8
5
0
17
56
55
20
-7
-39
-109
-153
-138
-138
-149
-103
-23
19
57
113
166
157
141
215
279
277
205
163
208
235
236
241
184
83
-26
-153
-252
-367
-511
-593
-534
-400
-239
-39
154
243
221
243
247
210
166
50
-47
-85
-53
24
88
127
100
89
99
93
68
-31
-92
-137
-212
-239
-224
-182
-152
-102
-64
-55
-49
-64
-125
-157
-120
-90
-65
-77
-99
-91
-19
84
155
301
437
514
575
583
518
382
192
-72
-324
-504
-544
-516
-494
-347
-161
31
198
281
315
291
248
125
-58
-144
-130
-95
-22
75
99
79
65
-35
-101
-5
65
34
-35
-90
-118
-141
-184
-186
-117
-46
63
128
107
26
-150
-261
-236
-140
2
157
289
331
283
145
-143
-362
-491
-593
-502
-406
-253
-63
57
269
509
707
857
827
655
559
455
370
289
120
-82
-289
-422
-511
-548
-673
-781
-731
-612
-418
-193
54
250
429
467
403
335
173
75
24
21
156
232
210
289
332
269
202
28
-178
-302
-364
-347
-344
-317
-229
-188
-155
-117
-92
-65
-17
-3
-8
51
62
35
27
26
7
-12
-5
6
6
1
7
10
34
59
60
72
80
54
-21
-105
-90
-22
2
-10
-45
-94
-157
-163
-77
28
114
237
405
499
524
480
319
111
9
-92
-245
-249
-196
-162
-119
-38
50
84
75
-30
-60
-40
-74
-76
-118
-120
-90
-92
-103
-109
-89
-69
-80
-80
-44
-41
-62
-95
-117
-120
-110
-102
-52
36
96
112
99
135
156
109
32
0
59
89
113
160
250
306
283
256
163
49
-52
-142
-176
-164
-162
-162
-131
-104
-119
-142
-130
-97
-39
1
18
38
49
45
26
4
-34
-52
-64
-87
-64
9
70
79
41
1
-2
-10
-12
-15
-21
-17
4
41
27
-29
-92
-107
-89
-42
68
178
245
258
231
138
-11
-157
-359
-509
-432
-259
-90
75
256
440
543
538
437
292
64
-205
-378
-386
-304
-231
-137
-65
31
143
223
273
191
44
-113
-238
-242
-211
-81
75
137
176
127
-3
-99
-182
-271
-240
-134
-36
54
147
232
274
251
123
-19
-116
-143
-147
-140
-94
-32
52
102
138
152
155
136
38
-55
-109
-133
-113
-47
7
29
4
-89
-193
-281
-316
-276
-205
-130
-55
67
275
401
423
443
453
357
222
140
-19
-110
-95
-131
-159
-184
-249
-269
-229
-149
-28
73
133
135
82
11
-67
-91
-95
-110
-70
-7
46
85
120
133
100
9
-161
-318
-378
-395
-327
-144
62
254
413
559
622
559
433
217
5
-147
-206
-221
-268
-228
-173
-144
-108
-107
-119
-112
-115
-160
-162
-113
-64
-6
51
122
188
212
181
176
164
68
-51
-97
-4
110
170
166
112
57
-34
-115
-115
-53
-9
-17
-20
-16
9
27
-12
-55
-83
-92
-80
-104
-176
-224
-220
-208
-173
-99
-17
62
124
171
180
129
87
41
-93
-176
-141
-117
-48
63
206
374
463
501
422
214
11
-161
-295
-347
-314
-190
-62
-53
-34
9
-31
-60
-74
-47
49
109
158
201
199
150
72
11
-54
-108
-94
-19
18
6
-55
-143
-180
-225
-284
-335
-342
-281
-185
14
272
453
553
587
577
485
320
100
-109
-188
-224
-243
-238
-243
-238
-246
-249
-241
-193
-109
-29
8
26
110
162
152
130
116
113
75
11
-59
-110
-159
-217
-249
-228
-166
-102
-44
-14
31
108
184
274
309
321
372
343
239
130
39
-14
-77
-109
-89
-112
-118
-49
-29
-75
-91
-88
-92
-120
-142
-152
-150
-127
-108
-12
130
218
267
277
259
221
205
169
104
31
-50
-131
-210
-242
-234
-200
-179
-162
-142
-112
-109
-118
-96
-95
-90
-67
-36
12
59
60
-13
-132
-210
-196
-104
20
128
231
336
463
601
612
480
306
120
-2
-85
-162
-256
-339
-338
-282
-198
-151
-148
-140
-102
-78
-92
-96
-24
48
98
167
158
139
84
-75
-201
-210
-100
41
138
234
355
451
484
410
280
144
24
-123
-300
-359
-329
-293
-239
-180
-142
-124
-115
-89
-58
-27
-10
-7
24
54
64
71
56
-2
-61
-62
-47
-29
-25
-16
3
-2
0
7
21
17
5
9
14
19
37
69
82
75
62
13
-42
-74
-109
-145
-140
-150
-166
-137
-101
-46
39
125
228
350
434
469
473
424
279
76
-79
-141
-158
-202
-230
-223
-200
-169
-140
-123
-130
-127
-136
-136
-104
-106
-114
-90
-35
12
24
52
80
132
217
234
195
147
80
27
-21
-58
-84
-95
-89
-90
-64
-51
-77
-70
-7
1
-26
37
146
191
200
205
157
48
-87
-143
-153
-119
-41
-18
44
126
144
113
64
16
-22
-53
-71
-53
-49
-66
-82
-74
-70
-92
-92
-94
-84
-65
-54
-26
5
30
54
27
-45
-87
-94
-59
-16
11
50
92
110
94
70
47
12
-17
-29
-16
37
90
107
83
7
-79
-138
-163
-99
26
135
220
283
296
218
113
16
-47
-82
-152
-201
-222
-228
-189
-117
-46
19
84
123
140
156
104
-1
-37
-26
-21
-9
-3
-1
-15
-49
-67
-65
-68
-61
-48
-33
-10
7
17
21
26
21
13
3
-7
-16
-41
-46
-33
-26
-34
-76
-103
-92
-91
-80
-14
97
176
208
242
216
137
95
62
14
-14
5
13
-9
0
24
12
10
26
6
-37
-83
-85
-63
-56
-62
-98
-144
-172
-153
-107
-77
-46
17
46
74
120
125
158
156
91
54
50
-3
-104
-173
-201
-198
-164
-93
14
109
197
237
181
139
114
89
92
94
78
-9
-92
-109
-97
-82
-99
-133
-155
-150
-178
-205
-182
-168
-109
10
145
259
301
331
342
238
87
-11
-64
-83
-92
-122
-148
-130
-80
-27
9
37
57
82
31
-122
-191
-165
-109
-59
6
114
193
235
266
283
185
-4
-158
-254
-266
-227
-162
-38
85
142
158
87
-55
-169
-181
-57
97
220
304
317
222
71
-45
-124
-145
-115
-85
-26
21
-21
-89
-141
-179
-183
-161
-124
-76
-41
-13
-7
-7
-32
-96
-107
-49
38
113
181
246
250
232
206
127
51
29
12
32
65
39
12
-69
-158
-166
-204
-196
-107
-6
117
218
255
208
74
-26
-51
-90
-150
-223
-279
-319
-328
-237
-76
77
175
190
109
57
30
-31
-17
71
202
337
427
373
238
148
52
-52
-203
-334
-395
-380
-287
-228
-150
-36
94
206
224
203
151
104
66
4
-51
-100
-85
-47
-53
-45
-14
24
62
75
57
26
-37
-87
-102
-128
-142
-155
-148
-113
-49
58
175
302
375
334
206
81
4
-40
-83
-166
-255
-322
-375
-365
-295
-163
21
175
286
374
412
339
217
125
65
2
-79
-140
-223
-302
-310
-242
-130
-11
147
292
409
495
445
251
50
-97
-165
-165
-163
-130
-111
-142
-191
-204
-215
-240
-258
-280
-193
-50
100
256
342
352
334
302
246
170
51
-69
-156
-220
-271
-272
-263
-238
-138
-46
6
53
115
161
181
174
163
153
153
112
47
36
-17
-51
-50
-58
-44
-34
-31
-61
-90
-117
-109
-74
-61
-89
-121
-136
-208
-239
-223
-191
-90
69
255
425
533
553
505
385
210
37
-100
-183
-206
-192
-195
-261
-379
-437
-423
-350
-220
-67
130
333
501
590
471
235
118
86
38
-17
-56
-90
-143
-176
-218
-211
-145
-97
-41
12
41
42
42
39
4
-64
-155
-200
-173
-152
-87
49
155
231
261
265
185
14
-77
-65
-35
-33
-54
-90
-155
-196
-168
-104
15
153
300
397
377
339
286
174
13
-122
-164
-195
-236
-226
-206
-143
-99
-104
-67
-53
-64
-52
-40
-84
-172
-185
-138
-92
8
131
231
329
380
342
232
108
-22
-143
-158
-111
-55
0
31
13
-39
-72
-80
-108
-166
-211
-246
-302
-313
-224
-77
99
254
359
367
278
162
45
-21
-8
43
109
215
284
236
152
90
43
28
-16
-94
-170
-215
-224
-226
-209
-229
-239
-163
-9
115
183
246
221
138
97
90
67
23
-61
-123
-119
-137
-176
-239
-286
-245
-142
-42
64
174
223
235
215
157
79
25
-6
-27
17
49
0
-84
-188
-261
-234
-165
-54
67
170
292
367
342
228
160
101
-25
-112
-153
-153
-153
-153
-128
-130
-151
-140
-102
-53
30
107
184
226
160
82
21
-51
-101
-121
-87
-76
-82
-47
2
26
29
71
61
12
-2
-19
-11
42
80
55
45
50
12
-97
-235
-306
-299
-230
-108
77
273
408
458
377
231
92
-51
-181
-215
-172
-157
-107
16
79
49
43
65
53
62
87
58
-5
-62
-88
-128
-204
-272
-315
-276
-193
-104
35
178
310
427
461
359
178
45
-27
-80
-132
-206
-232
-187
-148
-117
-102
-62
-11
12
24
55
86
77
60
26
4
-9
-17
32
73
99
119
89
26
-61
-107
-80
-49
-20
30
87
90
67
22
-20
-21
-74
-135
-157
-173
-209
-174
-67
29
150
238
261
220
165
76
-37
-45
-39
-57
-54
-72
-80
-55
-44
-11
62
92
112
145
102
33
1
-90
-193
-220
-222
-197
-136
-64
14
17
-5
37
80
162
264
307
291
230
162
93
26
-40
-76
-114
-122
-55
-60
-138
-239
-268
-221
-177
-80
-11
37
67
62
32
-55
-128
-179
-195
-138
-51
49
176
294
345
325
255
165
94
46
-41
-163
-242
-229
-156
-65
36
79
76
105
109
139
179
133
58
-32
-64
-63
-137
-183
-164
-122
-123
-169
-186
-148
-72
-10
91
234
370
431
414
350
207
73
-76
-243
-304
-319
-314
-267
-225
-142
-12
129
185
119
37
-70
-175
-191
-142
-84
31
163
233
229
115
-5
-74
-72
-37
-62
-37
62
167
230
259
185
0
-116
-140
-100
-58
-60
-67
-70
-64
-27
26
26
20
-6
-60
-75
-89
-77
-49
16
61
67
102
92
43
-33
-99
-89
-74
-64
-9
-7
-119
-179
-149
-113
-19
123
268
396
501
494
295
43
-199
-362
-351
-282
-124
20
56
125
129
32
-69
-122
-143
-171
-190
-100
7
86
222
311
307
236
163
62
-37
-87
-129
-138
-143
-131
-119
-144
-190
-181
-148
-169
-183
-169
-89
3
100
225
309
321
196
15
-139
-214
-163
-97
-21
123
276
347
365
344
210
65
-46
-138
-132
-67
-18
7
-3
-92
-203
-228
-227
-244
-218
-159
-96
-53
-1
72
94
90
85
88
79
37
-27
-80
-65
1
57
95
174
223
200
171
153
89
-48
-131
-140
-121
-107
-94
-62
-12
45
65
44
-18
-98
-142
-140
-168
-164
-57
70
208
292
339
364
270
140
37
-58
-122
-170
-173
-153
-148
-121
-114
-119
-107
-71
7
29
-6
-39
-41
-56
-127
-147
-127
-108
-125
-156
-80
26
96
153
226
312
312
296
282
154
-72
-238
-210
-94
46
218
317
305
193
87
9
-77
-123
-154
-143
-109
-90
-140
-240
-284
-283
-280
-293
-209
-82
32
160
259
349
250
49
-29
-79
-149
-157
-68
39
191
379
486
462
331
198
59
-94
-172
-161
-153
-214
-251
-239
-210
-181
-204
-233
-203
-114
-36
-7
4
-16
-75
-66
-87
-143
-83
64
256
461
638
673
528
302
41
-219
-345
-344
-306
-198
-17
179
291
264
94
-125
-243
-291
-302
-244
-90
93
252
371
429
372
161
-55
-195
-269
-338
-377
-379
-428
-407
-277
-99
98
233
327
354
256
112
27
41
36
35
116
180
196
147
70
-86
-251
-350
-470
-446
-331
-163
62
264
412
429
378
315
253
177
138
105
39
11
-49
-132
-166
-188
-230
-291
-266
-190
-179
-160
-108
-89
-85
-64
-25
31
82
155
286
381
330
239
170
-12
-158
-181
-173
-122
-74
-26
-5
-26
-93
-102
-32
31
149
258
282
190
102
57
-21
-97
-217
-290
-274
-168
-7
100
125
52
-69
-226
-289
-261
-249
-112
132
365
561
616
549
417
199
29
-68
-137
-212
-320
-367
-354
-321
-284
-220
-133
-73
-4
65
132
214
280
317
298
175
12
-67
-83
-94
-160
-228
-223
-215
-206
-183
-135
-80
-43
47
154
225
265
277
297
306
211
41
-117
-296
-374
-288
-175
-75
29
122
161
152
154
142
90
48
26
95
195
211
194
122
-6
-137
-258
-367
-407
-398
-420
-418
-333
-140
99
332
507
513
395
235
92
14
6
12
23
130
284
384
335
143
-29
-117
-181
-244
-292
-300
-286
-269
-237
-199
-173
-150
-100
1
75
65
39
-27
-57
-36
-62
-55
-47
-49
-26
43
156
178
178
218
268
273
210
147
13
-156
-287
-397
-380
-226
-44
139
226
160
10
-106
-233
-376
-312
-123
150
422
632
833
831
610
236
-117
-326
-374
-349
-332
-208
-78
-7
10
26
25
-55
-159
-327
-428
-354
-256
-216
-195
-119
-2
150
261
334
369
304
299
273
267
271
148
40
-19
-84
-212
-304
-359
-365
-297
-211
-135
-43
115
202
221
192
197
237
170
96
-22
-213
-313
-298
-205
-87
8
42
-62
-135
-112
-45
30
26
115
203
185
158
82
9
-12
-28
-30
75
205
212
137
101
48
3
60
105
141
107
-85
-288
-396
-362
-279
-135
20
111
227
246
221
189
82
-215
-510
-526
-474
-313
-175
26
331
416
258
-105
-322
-439
-515
-328
75
544
933
1235
1342
1133
692
186
-208
-335
-380
-450
-521
-622
-584
-483
-429
-345
-250
-235
-236
-149
-100
-28
36
92
188
243
262
237
274
283
216
89
-81
-206
-335
-434
-410
-259
-169
-94
113
285
416
517
486
334
45
-148
-201
-176
-85
-12
156
257
224
172
114
31
-61
-74
-125
-223
-249
-279
-275
-289
-317
-248
-155
-74
-8
52
37
24
2
-2
105
206
322
360
322
343
437
425
239
-41
-305
-382
-470
-521
-455
-281
-29
167
422
521
418
234
183
214
134
-16
-168
-165
-183
-172
-208
-211
-19
120
255
271
176
12
-144
-182
-263
-272
-271
-329
-417
-498
-588
-573
-418
-269
-44
171
433
626
712
831
794
648
384
147
47
-47
-107
-86
-33
-92
-153
-136
-128
-180
-207
-229
-359
-367
-324
-291
-148
5
206
375
509
627
645
503
215
-14
-214
-268
-228
-232
-187
-189
-188
-205
-213
-188
-175
-147
-124
-72
-51
-81
-178
-347
-486
-492
-393
-198
69
331
618
825
951
1011
792
422
149
-43
-168
-247
-301
-302
-215
-203
-220
-124
-41
57
67
-36
-113
-97
-52
-45
62
107
74
36
-33
-75
-90
-110
-157
-155
-165
-196
-165
-148
-218
-265
-229
-172
-128
-84
124
427
584
583
557
572
517
397
337
307
128
-88
-144
-163
-223
-282
-258
-263
-301
-345
-443
-436
-393
-318
-228
-170
-50
74
145
196
268
287
266
251
190
130
92
35
-9
-185
-427
-416
-321
-249
-104
78
331
528
630
668
569
331
-2
-214
-308
-345
-233
-190
-213
-220
-256
-231
-203
-151
-69
68
152
73
73
162
142
51
70
148
253
323
314
248
73
-128
-246
-199
-163
-135
-259
-524
-468
-357
-304
-104
162
421
581
655
655
569
262
-177
-315
-272
-254
-192
-192
-199
-191
-173
-129
-52
100
205
269
261
171
106
2
-90
-131
-139
-110
-110
-127
-131
-119
-142
-137
-109
-90
-55
-14
47
74
100
113
88
36
6
29
4
-42
-74
-107
-156
-190
-114
3
112
224
307
395
461
465
380
186
-17
-123
-169
-195
-200
-216
-228
-206
-195
-238
-272
-258
-216
-164
-63
22
37
110
157
129
132
75
18
97
225
327
347
292
238
211
159
96
61
-20
-86
-137
-146
-120
-128
-138
-194
-190
-138
-147
-175
-198
-188
-198
-212
-168
-122
-62
7
56
110
170
279
371
359
285
206
121
39
-25
-70
-90
-125
-142
-122
-102
-159
-231
-223
-215
-215
-179
-86
46
176
276
337
363
322
238
70
-65
-97
-105
-102
-100
-62
-8
82
117
92
57
21
67
143
201
170
73
-13
-105
-215
-315
-327
-270
-191
-94
-7
43
60
55
-3
-114
-188
-201
-203
-148
-42
61
163
259
349
416
446
391
259
121
4
-77
-151
-234
-297
-329
-393
-419
-322
-199
-83
12
145
263
322
369
303
155
47
4
-5
25
3
-32
-25
-44
-64
-175
-332
-414
-445
-365
-196
-28
207
405
507
596
564
375
134
-22
-85
-90
21
95
86
69
3
-76
-155
-210
-231
-259
-255
-210
-172
-152
-119
-42
-4
22
42
36
41
25
50
99
113
126
162
203
217
86
-107
-158
-176
-199
-180
-163
-111
-51
-38
28
123
167
165
115
88
84
62
42
13
-17
-10
1
8
-17
-91
-98
-77
-90
-62
-10
-29
-44
13
67
89
69
13
-59
-44
-3
26
65
82
102
117
194
234
176
90
-9
-77
-130
-157
-140
-135
-132
-96
-60
-32
-30
-46
-65
-57
-32
-54
-64
-49
-34
-6
39
49
-4
-21
1
29
74
97
94
56
37
-3
-107
-183
-231
-251
-264
-246
-137
47
225
370
518
599
562
412
219
90
-35
-157
-256
-333
-326
-338
-332
-238
-142
-64
1
49
112
148
132
142
134
103
107
135
172
140
22
-101
-175
-208
-240
-254
-228
-192
-152
-130
-89
-51
-44
-19
-2
39
125
202
278
355
374
358
304
187
90
59
-2
-108
-157
-144
-127
-153
-195
-171
-142
-160
-169
-160
-192
-265
-321
-324
-261
-134
32
238
413
488
514
460
307
159
100
56
6
35
73
59
-12
-92
-125
-143
-160
-162
-145
-126
-120
-112
-97
-99
-104
-98
-67
-14
17
32
22
-4
-19
-32
-36
-34
-21
49
152
197
155
110
127
102
62
37
-6
-8
14
-2
-49
-61
-78
-72
-46
-48
16
76
80
74
29
-7
-17
-27
-32
-19
24
41
11
-13
-24
-30
-26
-90
-201
-290
-330
-335
-344
-231
-25
200
445
622
689
657
534
327
122
-63
-225
-326
-367
-395
-404
-311
-216
-128
-14
71
152
213
216
187
176
151
96
23
-53
-107
-146
-151
-166
-185
-172
-203
-247
-215
-170
-107
4
110
215
298
318
269
185
60
-79
-163
-225
-220
-138
-49
69
198
264
273
230
161
99
-29
-152
-198
-201
-188
-159
-93
-41
12
47
47
52
49
65
69
43
50
74
94
111
117
112
89
45
-35
-109
-124
-123
-133
-127
-145
-150
-117
-72
17
95
155
199
178
120
18
-90
-160
-253
-309
-267
-178
-31
128
247
320
338
259
198
138
-10
-77
-88
-88
-92
-89
-79
-98
-72
-60
-75
-71
-77
-94
-133
-188
-193
-120
-31
18
44
95
159
188
211
224
182
160
151
147
175
158
100
21
-62
-100
-94
-99
-123
-117
-115
-134
-118
-63
-24
-4
12
7
-9
-31
-48
-49
-57
-45
-4
33
70
45
-8
-26
-15
24
37
34
15
-11
-29
-66
-107
-134
-102
-44
17
93
173
246
258
213
110
9
-46
-87
-97
-97
-94
-85
-63
-39
-46
-37
-22
-32
-33
-33
-37
-37
-30
-8
7
28
44
37
42
37
32
34
31
36
27
16
-4
-8
-4
-21
-6
12
16
7
7
10
-8
-17
-12
-6
-14
-10
-6
-16
-9
-4
-5
-5
7
1
-5
4
-7
-6
4
7
2
2
-3
-12
-3
-2
12
23
12
-6
-7
-9
-11
3
-1
4
12
24
26
12
-23
-97
-158
-191
-166
-86
21
122
154
152
160
148
51
-44
-53
-42
-11
61
145
180
192
175
74
4
-62
-115
-80
-51
-30
-44
-49
-35
-59
-47
-50
-80
-89
-87
-70
-49
-39
-33
-27
-34
-55
-60
-49
-38
-17
14
66
104
104
87
24
-52
-99
-132
-137
-101
-14
89
140
200
247
245
178
80
23
-26
-31
-42
-54
-55
-90
-124
-143
-150
-183
-222
-198
-107
9
143
267
306
264
222
198
186
166
73
-57
-135
-145
-137
-130
-125
-115
-106
-95
-67
-49
-40
-22
-16
-24
-28
-23
-11
12
21
26
22
10
17
7
1
6
13
26
19
17
17
17
21
14
12
9
22
45
26
-17
-31
-26
-48
-67
-74
-81
-98
-130
-119
-33
82
180
247
281
292
261
148
16
-75
-132
-166
-184
-153
-104
-79
-74
-72
-93
-130
-108
-57
6
95
190
287
291
242
207
102
-41
-171
-256
-232
-162
-76
21
98
173
198
148
54
-33
-85
-107
-122
-123
-96
-60
-30
-41
-51
-45
-29
-20
-9
0
-1
23
9
-11
-11
-24
-29
-25
6
34
32
22
31
7
-34
-37
-33
-7
7
45
102
130
121
72
-31
-215
-314
-296
-251
-156
-6
194
336
384
441
473
385
208
-15
-148
-151
-163
-171
-165
-153
-131
-120
-109
-87
-70
-49
-39
-73
-104
-97
-87
-81
-37
36
95
143
203
236
231
201
147
29
-62
-62
-67
-66
-84
-111
-116
-138
-163
-170
-117
-47
17
82
113
157
163
149
133
75
21
-29
-56
-70
-83
-76
-64
-45
-19
-7
-11
-6
-3
0
7
9
2
-22
-81
-165
-185
-139
-87
-19
74
173
248
295
326
308
215
72
-43
-94
-98
-87
-87
-74
-60
-59
-64
-77
-66
-62
-63
-46
-42
-51
-56
-54
-55
-67
-65
-42
-15
43
97
138
164
160
132
82
36
-16
-80
-117
-103
-78
-57
-15
11
31
69
82
74
60
39
5
-35
-48
-45
-37
-37
-46
-35
-26
-26
-9
4
-14
-19
-3
11
15
19
19
12
13
8
-6
-59
-189
-287
-240
-165
-94
19
140
275
367
395
394
338
211
49
-94
-166
-151
-118
-106
-79
-67
-70
-62
-75
-74
-57
-46
-30
-19
-9
-12
-20
-19
-22
-31
-23
-26
-34
-29
-24
-6
-9
3
38
38
51
64
64
54
25
6
-5
-5
4
13
12
16
20
9
-13
-31
-59
-52
1
18
32
45
17
1
5
16
21
11
1
-15
-34
-46
-26
-4
-7
-11
-7
-2
11
18
-6
-26
-20
-6
13
24
14
-3
-7
-14
1
15
10
19
40
42
19
8
-6
-28
-46
-60
-72
-85
-62
-17
19
50
79
82
75
54
36
20
-11
-27
-31
-22
-20
-17
3
17
14
-4
-24
-77
-181
-239
-258
-269
-224
-100
90
244
349
428
490
470
367
221
12
-109
-157
-161
-143
-136
-100
-69
-66
-70
-52
-62
-55
-41
-28
-13
-55
-98
-127
-143
-109
-67
-32
55
142
173
166
138
112
70
14
-27
-59
-89
-109
-98
-100
-107
-69
-20
1
11
11
9
1
-36
-59
-56
-59
-52
-32
17
105
166
191
201
201
158
104
67
-24
-113
-141
-130
-120
-127
-107
-107
-149
-158
-132
-104
-45
29
70
120
187
233
248
238
205
165
125
106
67
-10
-38
-67
-146
-236
-270
-268
-259
-203
-125
-24
68
158
226
238
217
184
141
36
-57
-89
-123
-160
-206
-272
-329
-299
-183
-43
102
246
359
400
402
342
220
117
7
-100
-174
-197
-148
-102
-90
-91
-117
-141
-153
-178
-168
-95
14
109
158
182
153
78
16
-27
-73
-105
-104
-46
32
102
145
156
148
116
81
24
-42
-80
-70
-47
-25
-7
-17
-41
-44
-32
-29
-35
-49
-55
-53
-39
-25
-41
-44
-34
-56
-95
-74
-10
27
96
160
174
190
193
163
97
44
-6
-53
-66
-64
-48
-36
-54
-77
-97
-148
-233
-309
-322
-297
-230
-100
75
276
438
566
632
584
491
325
119
-38
-167
-230
-258
-274
-264
-232
-190
-176
-164
-143
-146
-180
-205
-185
-143
-93
-21
115
239
304
337
321
279
208
96
-10
-66
-139
-176
-160
-148
-102
-82
-52
-21
-20
14
37
31
22
-1
-15
16
12
-4
4
-7
25
39
34
53
80
94
44
4
-17
-83
-156
-190
-178
-189
-198
-152
-44
89
203
284
331
354
306
223
107
-10
-70
-99
-118
-140
-123
-77
-52
-54
-65
-100
-128
-123
-115
-82
-47
-25
14
68
98
90
78
80
93
79
21
-82
-172
-206
-206
-180
-115
-26
87
181
198
205
241
284
267
153
57
21
9
10
-2
-31
-69
-99
-102
-81
-85
-109
-106
-76
-55
-60
-62
-63
-65
-90
-151
-176
-147
-107
-42
35
91
130
117
93
94
84
67
27
-4
22
83
163
223
243
199
107
26
-15
-41
-74
-89
-107
-133
-140
-135
-117
-106
-102
-72
-40
-2
22
12
-5
-27
-34
-29
-26
-23
-23
-21
-11
-24
-46
-86
-152
-174
-114
-34
44
145
253
349
384
385
341
202
35
-118
-243
-341
-361
-283
-122
51
176
246
269
276
207
133
41
-87
-129
-130
-118
-118
-157
-162
-128
-118
-110
-80
-42
8
50
63
49
34
10
-29
-52
-61
-69
-59
-36
-6
33
5
-65
-71
-37
-18
17
63
73
63
71
69
59
94
113
99
67
22
-48
-95
-87
-89
-100
-86
-8
97
157
176
209
194
133
100
90
85
24
-29
-60
-92
-89
-66
-99
-144
-139
-129
-83
-42
-37
-35
-35
-9
0
-40
-77
-71
-54
-55
-37
-23
-7
9
-7
-20
-29
-43
-50
-71
-77
-50
-29
-22
24
90
81
109
168
155
117
113
135
137
142
105
120
172
142
89
81
102
90
52
-39
-130
-157
-171
-184
-188
-183
-155
-130
-115
-103
-100
-73
-45
-42
-41
-17
1
-9
-41
-100
-140
-143
-142
-135
-66
52
137
165
137
90
93
117
79
31
47
118
224
313
319
263
244
200
75
-12
-63
-114
-148
-165
-184
-157
-100
-132
-163
-148
-152
-150
-163
-179
-153
-100
-31
4
59
136
120
75
62
77
115
120
81
39
-24
-87
-104
-111
-99
-63
3
37
70
128
206
264
256
270
236
193
120
-3
-85
-180
-232
-206
-170
-141
-50
23
34
20
-2
-12
-51
-77
-98
-120
-127
-107
-70
-42
-29
-46
-35
-34
-60
-42
-36
-31
2
65
120
133
140
111
74
41
2
-44
-70
-52
-31
-1
27
52
61
47
17
-59
-124
-162
-185
-183
-159
-130
-136
-142
-56
60
117
229
378
458
423
355
288
191
109
27
-26
-105
-186
-210
-193
-138
-85
-15
65
147
170
152
87
6
-62
-159
-234
-269
-228
-155
-64
24
77
94
102
101
22
-135
-243
-245
-218
-165
-105
-34
64
132
167
186
175
153
120
62
4
-27
-54
-55
-34
-26
-31
-32
-26
-38
-54
-54
-57
-68
-77
-44
-26
-55
-57
-34
48
119
135
165
181
188
223
219
165
112
42
-36
-113
-163
-170
-157
-136
-120
-97
-115
-189
-219
-143
-76
-23
71
141
190
214
236
233
177
133
96
55
-8
-62
-61
-45
-78
-85
-77
-143
-224
-244
-220
-184
-112
-39
41
143
234
264
221
170
133
79
12
-3
-29
-71
-79
-51
-48
-58
-52
-67
-49
-46
-34
-11
-34
-99
-145
-162
-191
-166
-113
-25
86
222
347
406
435
426
357
207
64
-57
-170
-226
-258
-282
-271
-225
-184
-136
-82
-25
40
64
51
22
-12
-34
-73
-174
-298
-326
-277
-198
-42
171
398
559
625
604
521
402
244
62
-123
-248
-292
-278
-241
-190
-148
-132
-130
-194
-294
-325
-283
-218
-124
24
193
338
422
412
382
327
231
140
-9
-165
-223
-220
-212
-190
-154
-154
-155
-127
-90
-98
-147
-196
-239
-236
-172
-82
47
213
357
460
511
501
447
350
261
193
74
-46
-115
-173
-232
-275
-274
-251
-231
-197
-170
-168
-140
-142
-248
-299
-236
-171
-92
-14
118
344
519
597
631
623
498
302
135
-13
-115
-140
-131
-172
-228
-304
-374
-402
-392
-289
-180
-89
16
90
132
148
130
115
118
92
35
-24
-66
-79
-73
-63
-38
-7
12
19
26
3
-63
-146
-177
-127
-106
-143
-190
-178
-82
-2
69
186
369
556
677
705
607
442
241
36
-128
-265
-410
-475
-427
-394
-352
-274
-188
-110
-41
57
128
168
195
206
191
127
-1
-142
-227
-306
-338
-304
-311
-359
-417
-428
-340
-168
85
387
702
955
1094
1108
983
727
408
54
-263
-444
-544
-528
-467
-389
-302
-256
-200
-175
-146
-113
-100
-107
-109
-95
-84
-50
-14
29
45
46
44
44
60
52
54
42
28
19
-1
-11
-16
-7
-6
-18
-52
-90
-84
-54
0
69
111
120
100
72
74
67
-21
-118
-142
-129
-72
-17
29
107
133
129
134
79
-49
-115
-94
-72
9
116
192
233
214
172
114
52
24
23
17
16
12
9
-1
13
30
-19
-69
-98
-132
-151
-160
-160
-173
-192
-199
-176
-145
-104
-40
-9
43
123
153
163
138
101
67
34
-2
-52
-84
-100
-82
-41
-23
0
32
24
-5
-5
0
-16
-39
-42
-30
18
43
38
67
82
100
112
89
7
-107
-174
-217
-212
-147
-61
69
213
321
382
365
312
243
139
5
-153
-297
-340
-314
-302
-196
-40
51
107
158
196
160
106
48
-4
-31
-90
-107
-96
-77
-60
-39
4
-14
-60
-101
-95
-74
-64
-43
-4
57
81
106
121
105
90
70
57
31
7
-5
-11
-11
-26
-17
-12
-32
-41
-59
-74
-97
-100
-163
-239
-216
-168
-44
98
186
255
289
304
273
210
110
-37
-145
-205
-233
-222
-169
-54
84
160
198
245
243
226
189
96
-17
-104
-145
-173
-194
-174
-142
-111
-73
-57
-63
-102
-98
-82
-96
-67
-24
32
63
78
116
147
149
148
149
113
35
-55
-94
-114
-129
-100
-49
-11
-19
-33
-28
15
75
75
82
111
127
140
161
127
52
-12
-107
-181
-216
-236
-265
-279
-214
-145
-90
-14
100
228
314
340
360
368
306
221
77
-76
-155
-185
-168
-193
-222
-200
-140
-69
-23
13
22
9
-14
-51
-73
-83
-83
-73
-44
13
73
104
129
169
169
137
112
51
-31
-65
-72
-98
-125
-125
-102
-99
-90
-61
-51
-12
46
57
55
60
104
144
90
10
-32
-25
-19
-19
-31
-16
53
70
102
140
112
82
86
95
25
-65
-155
-264
-294
-261
-191
-135
-68
62
180
274
308
313
314
256
132
11
-85
-181
-234
-227
-218
-230
-185
-142
-103
-21
17
-8
-77
-125
-123
-113
-117
-50
26
86
175
263
347
375
352
281
208
119
15
-75
-185
-255
-303
-289
-175
-64
17
74
117
130
89
24
-21
-51
-92
-133
-125
-84
-89
-96
-60
23
95
128
156
180
212
225
207
136
28
-55
-72
-84
-149
-193
-202
-185
-160
-159
-173
-180
-170
-171
-165
-111
-28
55
142
184
190
215
226
196
151
99
68
107
135
147
168
174
176
148
67
-34
-91
-161
-200
-201
-188
-136
-126
-107
-74
-48
-63
-90
-79
-89
-103
-123
-158
-197
-189
-121
-7
120
220
303
348
348
301
218
139
66
-65
-147
-127
-102
-60
-56
-56
-47
-121
-234
-274
-266
-198
-39
122
273
379
420
387
244
80
-69
-257
-342
-264
-161
-77
13
155
270
312
312
242
137
7
-135
-224
-268
-273
-273
-235
-171
-132
-125
-107
-47
-29
-19
55
176
286
322
286
234
159
62
-27
-115
-140
-133
-143
-166
-143
-118
-130
-123
-109
-75
-19
54
110
127
120
109
72
22
-40
-82
-17
70
139
175
165
136
49
-40
-82
-138
-203
-205
-190
-180
-151
-89
-14
82
186
228
284
342
335
251
102
-21
-106
-145
-134
-138
-149
-117
-65
-53
-65
-36
-1
-8
-71
-129
-131
-89
4
62
71
90
95
7
-70
-51
-62
-75
-74
-45
15
46
77
143
172
176
172
100
60
55
40
-16
-43
-25
-36
-39
-29
-23
-30
5
19
-47
-85
-122
-242
-301
-278
-225
-142
-127
-117
-21
95
153
215
261
309
334
292
261
219
172
49
-121
-233
-250
-200
-117
-3
55
52
19
-2
-48
-152
-223
-185
-82
1
87
188
287
332
333
234
46
-123
-259
-334
-355
-309
-249
-220
-149
-80
-7
109
226
310
261
133
51
-44
-157
-196
-202
-183
-97
47
229
393
440
413
398
189
-95
-245
-386
-424
-349
-273
-115
44
166
286
277
138
-46
-153
-211
-216
-113
60
231
309
379
395
314
175
-42
-263
-381
-347
-281
-243
-180
-97
0
86
73
-41
-140
-188
-292
-357
-247
-52
125
241
384
556
610
531
412
258
100
-26
-159
-278
-343
-333
-311
-339
-415
-508
-511
-428
-351
-221
25
296
491
613
688
685
586
412
203
42
-49
-124
-203
-263
-238
-152
-97
-64
-51
-32
38
90
86
92
41
-36
-77
-119
-150
-191
-215
-293
-448
-541
-471
-343
-212
-17
231
490
627
705
722
654
567
349
79
-80
-141
-194
-295
-367
-331
-231
-147
-67
-1
37
17
-21
-24
-79
-178
-234
-249
-294
-238
-62
81
169
229
345
406
381
330
164
75
23
-160
-300
-348
-311
-256
-183
-38
63
80
54
31
-6
-75
-102
-19
137
277
364
397
432
357
210
94
-39
-133
-197
-238
-292
-359
-383
-404
-382
-238
-89
41
161
220
304
335
321
241
62
-90
-140
-122
-128
-108
-47
2
31
33
3
-31
-36
-58
-92
-143
-244
-379
-379
-273
-191
-84
52
221
336
439
533
536
461
235
2
-79
-54
-27
-110
-252
-319
-335
-268
-133
13
192
308
384
455
493
384
128
-36
-108
-160
-143
-113
-109
-117
-201
-293
-312
-292
-201
-98
-30
36
88
121
109
63
9
-60
-120
-142
-124
-87
-82
-60
20
69
87
107
122
91
16
-17
-22
-29
-10
4
24
58
44
52
69
21
-155
-388
-447
-372
-248
-62
133
375
552
604
637
593
482
246
-131
-347
-347
-253
-187
-161
-71
27
100
125
137
120
8
-86
-140
-212
-194
-160
-137
-92
-115
-84
4
59
84
79
29
-44
-90
-105
-110
-107
-52
25
74
61
42
42
17
-24
-47
-42
-31
4
35
58
59
38
36
22
10
-3
-94
-259
-387
-419
-413
-330
-195
2
305
524
682
799
783
633
356
122
-55
-118
-35
-15
-43
-116
-331
-493
-517
-585
-499
-254
-29
206
354
471
533
518
419
196
3
-112
-197
-236
-241
-276
-282
-243
-201
-170
-148
-129
-109
-105
-116
-104
-108
-95
-37
4
47
107
182
270
314
316
302
264
142
-26
-123
-168
-184
-190
-170
-118
-89
-101
-163
-253
-242
-148
-126
-40
181
408
585
710
815
744
537
317
-22
-288
-376
-403
-393
-365
-329
-309
-289
-265
-211
-153
-120
-97
-77
-38
-1
45
95
125
121
61
7
-11
-2
-6
0
-2
12
97
173
232
263
265
197
42
-97
-159
-164
-142
-105
-87
-80
-74
-74
-64
-54
-55
-54
-36
-27
-40
-52
-39
-9
28
42
33
27
15
36
84
110
114
122
151
174
175
130
60
4
-37
-108
-168
-115
-21
53
61
18
2
-11
4
14
-9
-34
-55
-49
-65
-94
-130
-138
-97
-92
-105
-76
-10
49
96
138
150
134
94
34
-9
-18
-17
-34
-41
-34
-29
-24
-20
-13
-12
-11
-7
-4
-1
4
5
2
-2
-12
-52
-87
-104
-114
-102
-80
-63
-82
-69
11
105
195
264
334
369
355
298
186
84
2
-92
-169
-195
-200
-186
-165
-133
-110
-94
-73
-60
-46
-32
-29
-32
-42
-49
-44
-25
-9
18
35
30
37
48
45
39
43
49
56
59
42
25
23
22
11
-6
-22
-31
-34
-32
-26
-19
-16
-8
-7
-9
-6
-10
-17
-23
-26
-30
-29
-20
-8
1
-9
-41
-55
-41
-43
-42
-17
17
51
90
145
160
135
90
39
16
19
26
19
0
-19
-27
-30
-29
-28
-22
-29
-46
-46
-36
-31
-34
-24
-6
5
11
5
14
25
9
-7
-21
-31
-39
-36
-22
-13
3
18
32
41
44
36
28
20
6
-2
-9
-8
-12
-14
-7
-7
-16
-19
-11
-11
-11
-16
-23
-29
-31
-26
-18
-25
-52
-52
-59
-94
-91
-38
24
74
135
214
289
294
213
126
85
26
-75
-132
-129
-110
-112
-100
-81
-65
-36
-21
-21
-31
-20
4
17
26
28
29
24
7
-18
-22
-19
-27
-30
-42
-38
-27
-24
-19
-12
-7
-11
-12
-12
-8
-7
-9
1
7
19
33
37
42
42
37
26
9
3
9
7
1
-9
-18
-31
-47
-76
-99
-109
-107
-76
-29
31
87
140
175
183
175
135
95
76
60
46
7
-30
-55
-83
-71
-59
-65
-62
-59
-59
-67
-98
-132
-133
-112
-77
-29
30
113
173
197
185
150
107
45
-29
-85
-97
-81
-70
-64
-42
-20
-6
9
16
14
12
5
-16
-39
-39
-29
-23
-23
-14
-7
-2
5
6
8
9
3
-1
5
8
6
6
0
-10
-17
-17
-7
5
17
31
40
41
44
47
38
24
6
-4
-4
-7
-2
-1
-4
-3
-4
-5
-7
-12
-21
-27
-36
-41
-42
-46
-45
-39
-29
-14
-11
-9
19
52
60
58
67
74
78
87
80
70
54
13
-15
-29
-40
-42
-42
-44
-48
-51
-41
-39
-46
-39
-31
-17
-11
-9
-7
-4
2
4
2
-4
-9
-7
-4
-4
1
7
3
6
4
2
6
1
-4
-6
-2
-4
-9
-6
2
7
16
22
21
21
27
17
3
9
10
-1
-13
-26
-18
-22
-28
-14
2
11
17
37
60
67
59
53
42
12
-18
-40
-55
-59
-54
-46
-40
-34
-34
-24
-5
7
18
29
31
23
5
-7
-1
7
7
9
5
-6
-16
-14
-11
-7
1
2
5
10
11
6
3
-5
-22
-31
-34
-51
-70
-71
-59
-54
-33
4
43
84
105
127
152
150
100
39
16
3
-22
-59
-80
-89
-79
-29
24
61
73
79
71
32
6
-2
-22
-55
-96
-112
-106
-99
-87
-84
-55
-7
25
54
80
98
94
75
45
19
16
1
-29
-51
-51
-46
-36
-27
-23
-16
-14
-7
1
1
-4
-4
-9
-19
-22
-16
-11
-34
-41
-37
-44
-34
-33
-8
24
53
90
122
150
142
93
44
11
-26
-47
-57
-40
2
12
7
9
16
-14
-74
-87
-56
-25
-5
17
44
72
55
5
-22
-7
18
35
61
57
29
15
4
-22
-26
-38
-66
-65
-64
-65
-72
-68
-56
-49
-39
-29
-1
29
55
67
60
51
27
-1
-34
-53
-46
-36
-31
-21
12
60
87
94
105
92
61
37
22
19
12
-5
-34
-54
-57
-56
-52
-40
-17
5
3
-37
-79
-105
-126
-122
-92
-24
69
138
171
170
160
154
97
6
-53
-69
-52
-16
34
60
64
75
65
31
14
-16
-65
-107
-120
-138
-154
-134
-107
-75
-44
-17
3
26
29
21
26
19
7
17
25
22
49
80
82
71
39
-1
-13
-6
-19
-46
-55
-45
-16
16
20
-2
-23
-46
-82
-86
-55
-45
-10
44
78
116
117
99
57
-1
-42
-89
-85
-48
-9
54
109
128
126
99
33
-23
-31
-22
-16
-10
-6
-15
-58
-90
-102
-106
-84
-42
2
34
59
71
76
61
52
59
41
17
-11
-29
-36
-59
-70
-70
-90
-102
-94
-62
-24
6
51
72
74
89
65
9
-16
-29
-30
-18
-1
19
31
39
20
4
20
12
-26
-50
-49
-48
-27
9
46
75
81
70
48
18
3
17
20
10
10
6
6
14
7
-27
-79
-111
-89
-47
-32
-22
-8
2
-6
-12
-14
-22
-42
-57
-35
1
35
65
94
97
58
1
-57
-77
-74
-57
-22
26
62
79
96
97
87
59
22
0
-23
-51
-84
-124
-143
-143
-125
-87
-38
36
109
166
218
251
223
131
37
-36
-84
-116
-151
-145
-114
-99
-94
-81
-43
-8
36
84
112
138
143
88
26
10
-14
-46
-77
-85
-83
-91
-77
-51
-13
9
25
44
33
22
19
10
-11
-21
-16
-7
10
39
67
72
50
21
4
-11
-14
-16
-27
-49
-85
-99
-94
-69
-39
2
63
127
160
163
132
46
-16
-44
-62
-43
-20
-4
-2
0
3
-14
-46
-43
-31
-35
-34
-40
-41
-36
-21
2
4
-4
-18
-34
-58
-74
-72
-37
21
64
109
135
144
147
126
90
49
12
-26
-46
-55
-71
-89
-95
-92
-89
-55
-3
41
68
85
72
24
-20
-26
-19
-15
-12
-35
-47
-34
-21
-23
-31
-34
-39
-33
-17
8
46
91
117
110
115
110
71
55
36
-14
-46
-64
-73
-77
-94
-110
-118
-113
-105
-71
-14
39
73
95
118
125
103
36
-34
-63
-55
-41
-32
-24
-19
11
45
62
54
43
34
17
2
-21
-27
-16
-30
-54
-69
-95
-124
-140
-140
-108
-45
41
137
186
182
178
179
152
87
40
-6
-44
-52
-47
-26
-30
-32
-32
-57
-86
-104
-118
-114
-90
-70
-26
42
101
122
124
132
101
70
48
7
-14
-22
-17
-18
-31
-21
-12
-21
-31
-42
-57
-73
-58
-37
-33
-27
-16
-5
-12
-27
-34
-39
-41
-46
-52
-29
9
52
85
94
89
72
69
69
67
46
-2
-38
-56
-44
-19
-6
17
19
-12
-10
4
-12
-41
-53
-11
29
52
56
41
32
8
2
14
20
41
49
29
29
37
50
34
-19
-47
-62
-75
-78
-71
-70
-72
-77
-91
-69
-29
-20
-27
-19
10
46
64
62
72
79
55
19
-13
-21
-22
-23
-11
-6
2
2
-4
-1
-2
-9
-26
-53
-87
-89
-67
-40
7
43
80
130
172
199
186
131
51
-7
-36
-57
-80
-109
-117
-103
-78
-21
12
28
55
44
17
9
5
-35
-109
-166
-185
-170
-122
-45
39
104
144
196
239
244
159
40
-10
-34
-67
-90
-85
-72
-57
-42
-27
-8
-2
-5
11
50
49
30
9
-27
-72
-82
-94
-110
-99
-78
-12
55
58
36
41
39
2
-14
11
57
103
112
79
41
18
4
-16
-32
7
72
97
80
47
45
58
8
-55
-57
-45
-51
-55
-52
-50
-46
-49
-54
-42
-39
-49
-53
-57
-59
-68
-101
-117
-107
-84
-75
-68
-19
59
119
161
190
186
162
134
138
109
12
-59
-75
-61
-49
-39
-55
-72
-84
-87
-69
-55
-39
-17
34
87
110
115
84
48
38
22
-4
9
17
6
7
4
2
-20
-17
16
32
19
-16
-35
-24
-9
-30
-41
-21
-1
-2
12
26
11
-45
-107
-99
-94
-105
-110
-130
-120
-67
1
62
133
185
195
182
128
84
49
11
-4
-51
-95
-94
-64
-16
6
8
6
9
26
41
60
51
38
4
-44
-102
-191
-215
-188
-120
-19
67
161
244
274
262
244
143
-21
-102
-147
-198
-223
-216
-191
-162
-115
-43
50
123
165
168
167
193
187
185
199
132
36
-9
-51
-105
-150
-153
-146
-152
-155
-145
-124
-125
-81
-9
15
11
4
12
11
16
56
94
71
36
64
100
90
57
27
-4
-59
-92
-87
-87
-79
-46
-9
-1
12
26
37
65
92
132
123
12
-103
-160
-179
-181
-135
-44
54
148
213
225
189
123
67
19
-17
-61
-100
-92
-92
-100
-97
-85
-96
-115
-95
-57
-7
32
39
43
69
117
153
164
165
162
116
31
-33
-70
-75
-67
-49
-12
-10
-26
-54
-75
-49
-25
-16
-17
-4
17
24
22
-2
-45
-105
-133
-122
-77
4
77
124
155
171
153
101
31
-24
-55
-101
-124
-140
-154
-130
-119
-102
-64
-7
52
98
128
138
176
189
169
148
132
102
24
-37
-97
-157
-192
-211
-178
-112
-62
-41
-21
21
101
130
87
61
17
-55
-108
-104
-52
-10
19
49
74
98
102
57
-45
-105
-70
-55
-80
-51
24
80
92
90
94
109
134
138
87
-9
-73
-107
-134
-130
-100
-88
-84
-50
-28
-32
-32
-25
-22
-4
9
21
42
65
100
102
62
21
36
57
67
73
36
-3
-50
-99
-112
-91
-57
-33
-29
-28
-46
-72
-63
-29
36
100
120
140
165
149
126
85
7
-18
-32
-49
-76
-106
-89
-79
-59
-37
-39
-43
-49
-59
-62
-56
-50
-39
-23
-27
-24
9
38
93
123
115
109
60
2
-44
-69
-102
-120
-85
-33
46
152
238
209
138
110
65
-12
-105
-140
-121
-115
-137
-136
-88
-29
24
60
90
105
85
55
27
20
33
-2
-36
-33
-37
-63
-101
-86
-57
-45
-9
26
31
22
10
7
-4
-41
-49
-18
22
51
54
42
29
7
-13
-37
-75
-97
-95
-90
-64
-26
1
37
89
128
109
41
17
40
69
127
158
137
102
73
50
26
-4
-44
-84
-109
-92
-60
-33
-8
-13
-18
-21
-34
-13
4
-30
-59
-70
-86
-87
-74
-56
-49
-33
-20
-21
-1
9
23
27
22
2
-18
-11
-25
-42
-31
8
55
99
145
186
179
128
87
31
-41
-85
-110
-120
-93
-46
-2
39
52
39
14
-11
-34
-57
-57
-60
-68
-82
-99
-104
-93
-85
-62
4
102
200
276
341
326
216
79
-25
-40
-68
-125
-125
-92
-65
-43
-60
-92
-55
-21
-26
-36
-30
-33
-43
-29
6
34
17
12
15
-20
-58
-67
-77
-78
-67
-49
7
65
116
147
135
79
22
-11
-27
-19
-24
-26
-10
2
12
-4
-32
-36
-39
-54
-56
-44
-29
-17
-14
2
57
86
48
51
91
107
100
48
-19
-55
-46
-33
-16
27
80
91
51
-1
-37
-39
-39
-36
-52
-54
-39
-38
-47
-51
-26
-7
21
59
64
43
-9
-89
-146
-154
-125
-64
11
85
150
188
162
100
64
29
-39
-72
-48
-53
-80
-82
-47
6
46
74
67
35
4
-37
-73
-77
-72
-80
-97
-68
-3
32
71
107
118
120
122
85
11
-24
-45
-46
-9
19
36
37
37
32
4
-36
-53
-52
-54
-61
-63
-57
-64
-65
-47
-14
27
50
78
102
74
-23
-79
-73
-74
-85
-80
-19
36
85
117
87
55
37
49
51
0
-36
-31
-43
-75
-72
-49
-38
-32
-24
10
49
62
64
62
19
-51
-70
-74
-54
-4
32
82
102
96
107
98
78
55
12
-21
-24
-24
-25
-40
-79
-100
-92
-86
-70
-49
-58
-75
-89
-113
-105
-82
-37
51
123
169
203
236
253
203
117
14
-58
-75
-67
-72
-116
-133
-117
-95
-50
2
25
17
7
24
34
7
-24
-33
-32
-25
-16
-39
-75
-105
-85
-28
27
89
180
256
236
200
124
-1
-91
-104
-75
-105
-128
-129
-128
-92
-44
-11
14
50
74
69
31
4
-16
-42
-42
-39
-18
19
39
43
49
60
56
22
-30
-51
-37
-21
-22
-36
-29
-20
0
7
-31
-60
-42
7
56
80
64
44
52
73
59
16
-21
-46
-33
-1
0
-15
-15
-11
-2
-9
-16
-16
-19
-19
-45
-94
-129
-134
-97
-12
60
124
164
162
169
153
59
-28
-30
-47
-57
-34
-22
-20
-17
1
10
-16
-54
-82
-93
-72
-39
-9
6
2
21
47
47
39
46
39
26
2
-25
-39
-52
-27
13
35
64
108
120
92
26
-39
-65
-94
-97
-84
-50
1
9
-11
-32
-32
-46
-54
-5
28
34
46
56
69
73
57
11
-42
-89
-108
-90
-68
-29
11
32
54
80
89
92
71
32
31
36
12
-12
-32
-48
-46
-19
14
37
50
27
-26
-63
-84
-113
-132
-131
-112
-72
-20
37
54
60
69
16
-65
-84
-46
33
124
209
285
265
203
113
14
-34
-72
-89
-81
-72
-61
-46
-46
-72
-96
-90
-86
-78
-39
-7
6
25
55
63
45
10
-11
-16
-41
-56
-57
-59
-59
-26
5
-3
7
17
4
-11
-6
9
22
47
60
54
39
24
17
22
47
68
51
41
53
47
10
-42
-85
-102
-95
-86
-67
-50
-41
-20
4
39
60
67
62
34
15
21
26
29
29
35
32
11
-12
-57
-95
-79
-65
-76
-72
-51
-3
21
34
54
62
64
56
34
26
44
18
-17
-34
-62
-46
-19
-2
26
27
2
-17
-19
-12
-2
2
-8
-31
-77
-130
-128
-66
31
99
117
145
145
132
112
65
-11
-58
-54
-22
12
7
-2
-37
-54
-46
-31
-11
3
2
-19
-11
-11
-19
-32
-39
-32
-59
-104
-138
-142
-107
-69
-8
89
153
174
181
185
133
27
-53
-94
-80
-34
26
72
94
75
37
86
120
55
-37
-87
-110
-140
-178
-198
-138
-79
-27
44
109
162
175
185
183
124
39
-24
-70
-138
-198
-196
-204
-210
-158
-85
-9
83
178
231
218
142
41
-31
-44
-32
-12
-13
-17
-7
-35
-42
-45
-72
-89
-61
12
59
86
122
129
100
72
22
-9
-14
-55
-79
-99
-80
-35
-9
27
25
12
21
37
-9
-95
-54
-17
-64
-34
28
73
116
147
155
101
-23
-106
-108
-72
-30
-7
31
33
-25
-107
-167
-141
-78
-24
32
90
144
170
155
118
44
-24
-37
-36
-11
-3
-17
-17
-12
9
17
8
-14
-13
19
34
11
-36
-69
-89
-92
-84
-77
-54
-7
12
0
-5
-12
2
-32
-74
-23
36
84
97
99
90
67
52
11
-12
-17
1
19
26
17
6
20
18
-3
-27
-44
-79
-122
-142
-125
-85
-73
-82
-59
-7
33
78
102
123
168
165
92
18
-14
-14
2
13
19
8
16
34
9
-17
-26
-31
-31
-9
4
-11
-29
-31
-17
-5
-11
-17
4
7
-12
-27
-31
-29
-25
-12
-7
-1
-4
-8
4
39
65
61
46
40
29
5
-9
-15
-16
-14
-16
-24
-24
-22
-16
-3
7
16
4
-4
-14
-16
6
17
2
-24
-32
-7
19
5
-1
-13
-57
-94
-112
-109
-100
-79
-32
42
132
196
231
215
137
52
-4
-14
-19
-16
-1
10
36
47
56
27
-38
-70
-92
-104
-103
-89
-70
-65
-63
-64
-67
-62
-26
5
21
51
65
56
41
21
2
-12
-10
11
21
4
-39
-76
-78
-44
-4
42
80
95
132
156
157
134
68
5
-41
-46
-47
-51
-57
-77
-67
-59
-79
-114
-155
-148
-107
-74
-27
36
94
143
188
215
183
95
32
10
-19
-57
-107
-110
-86
-75
-50
-28
11
62
89
79
52
21
14
-8
-101
-168
-173
-155
-143
-148
-128
-44
37
80
119
159
210
202
180
179
136
99
120
137
111
83
59
2
-88
-137
-149
-168
-190
-182
-148
-125
-87
-61
-41
-22
-26
-90
-205
-278
-305
-256
-117
73
292
484
591
591
475
297
128
-49
-198
-273
-298
-327
-332
-304
-297
-234
-81
44
127
213
296
306
243
215
209
215
223
189
109
-7
-111
-191
-225
-206
-175
-138
-112
-100
-80
-81
-125
-154
-154
-153
-107
-34
24
85
125
145
162
159
148
114
96
107
83
25
-25
-70
-92
-74
-59
-51
-52
-64
-51
16
50
44
65
25
-39
-59
-67
-69
-70
-34
12
15
19
29
45
57
37
-39
-109
-122
-115
-72
-21
40
83
79
73
47
-9
-72
-52
39
108
173
212
148
45
9
-46
-97
-110
-97
-29
-4
11
17
-1
-2
-3
-4
-16
-24
-17
10
23
12
3
12
54
84
58
9
-24
-36
-35
-37
-33
-28
-27
-27
-36
-53
-83
-87
-54
-13
23
46
60
55
44
22
-5
-25
-39
-49
-21
4
-16
-31
-55
-80
-79
-76
-45
19
85
157
233
263
203
112
52
27
-8
-62
-82
-70
-51
-47
-44
-43
-47
-46
-52
-46
-43
-48
-50
-44
-33
-36
-47
-63
-77
-74
-44
21
87
113
106
107
122
117
82
49
29
26
31
9
-21
-64
-92
-74
-65
-46
2
20
28
36
16
-2
-24
-41
-42
-45
-69
-105
-108
-120
-99
-22
48
115
141
181
206
161
86
17
-27
-55
-55
-70
-79
-80
-68
-31
-16
-27
-92
-178
-221
-182
-84
22
130
239
329
364
305
173
57
-32
-80
-74
-59
-52
-49
-42
-55
-69
-82
-102
-94
-86
-69
-34
5
39
70
94
85
52
16
-12
-32
-47
-70
-90
-95
-103
-73
-27
9
25
-11
-19
-14
-6
44
68
59
54
76
105
97
95
95
46
-3
-27
-57
-81
-86
-79
-48
-18
-27
-35
15
73
69
26
16
19
26
50
57
48
25
19
21
9
-11
-50
-65
-86
-146
-153
-119
-84
-36
-12
6
25
47
77
90
59
5
-22
-27
-18
11
24
28
41
49
47
44
24
-11
-27
-59
-105
-137
-116
-24
54
115
188
240
224
162
107
17
-44
-60
-105
-118
-151
-176
-158
-158
-135
-100
-67
-47
-26
21
40
58
99
127
143
157
139
71
-16
-65
-75
-82
-94
-84
-42
-9
-7
-17
-25
-9
65
173
208
159
113
81
44
-8
-60
-114
-155
-135
-94
-83
-88
-43
19
57
82
93
105
82
45
5
-79
-111
-117
-111
-80
-51
18
67
85
112
131
120
65
26
-19
-84
-79
-44
-28
-16
-20
-40
-58
-63
-74
-72
-61
-65
-45
-15
-8
-24
-41
-34
-36
-37
-8
38
51
31
57
97
74
4
-59
-85
-82
-59
-15
64
116
178
264
306
299
219
108
1
-69
-62
-52
-48
-22
0
6
-8
-42
-74
-99
-103
-99
-120
-152
-154
-125
-77
-41
-10
26
33
26
22
14
7
-25
-50
-49
-49
-38
-32
-47
-67
-77
-70
-29
39
94
132
148
149
155
145
99
48
7
-34
-46
-37
-27
-24
-26
-31
-37
-24
-27
-42
-60
-82
-123
-181
-172
-97
-3
80
144
204
244
234
157
50
-32
-37
-5
36
78
59
11
6
41
53
12
-48
-93
-110
-118
-97
-71
-57
-25
4
17
39
54
22
-10
-39
-111
-186
-245
-253
-182
-59
49
108
166
236
279
249
196
128
21
-46
-59
-21
16
41
51
6
-67
-128
-135
-116
-79
-74
-68
-27
10
79
129
161
142
69
22
9
-26
-97
-166
-196
-165
-120
-74
-9
44
74
102
55
-21
-23
-54
-82
-14
22
49
126
175
212
220
204
145
69
-8
-128
-176
-175
-204
-186
-112
-27
46
74
97
80
-28
-109
-130
-113
-79
-19
75
160
224
176
22
-29
-23
-99
-184
-188
-101
19
110
152
137
82
13
-69
-117
-151
-201
-191
-122
-14
95
166
223
236
222
213
124
-17
-74
-52
-46
-84
-113
-130
-142
-102
-54
-17
31
71
77
67
58
-11
-75
-95
-103
-42
2
6
53
79
20
-49
-65
-67
-128
-188
-171
-78
88
239
309
287
222
176
120
40
23
45
76
105
99
84
18
-88
-205
-258
-258
-261
-206
-126
-46
11
37
57
66
31
-31
-59
-73
-72
-53
-22
10
36
52
44
30
-24
-82
-81
-89
-86
-85
-73
-12
43
104
68
-92
-177
-146
-76
42
160
263
385
485
537
495
285
27
-87
-156
-237
-213
-102
-43
-36
9
68
57
-15
-136
-243
-248
-211
-167
-137
-102
-52
-25
2
21
1
-12
8
4
-39
-61
-52
-9
56
102
110
92
110
136
113
80
34
-4
-13
-19
-15
-11
-29
-60
-66
-57
-102
-208
-282
-282
-204
-56
80
212
362
455
499
499
332
-27
-268
-339
-400
-351
-239
-106
-28
48
168
203
213
196
156
132
85
13
-38
-89
-104
-100
-118
-120
-130
-102
-99
-107
-42
-42
-59
-37
-7
13
16
37
69
85
38
-37
-148
-201
-148
-125
-49
102
248
329
380
412
317
110
-120
-223
-208
-155
-70
-30
-37
-34
-22
-44
-122
-168
-156
-99
4
99
162
156
96
15
-32
-41
-74
-85
-55
-7
45
92
87
56
23
-67
-122
-118
-95
-109
-168
-219
-199
-88
36
204
387
469
468
472
450
331
113
-130
-269
-284
-238
-173
-135
-119
-89
-72
-89
-98
-79
-79
-77
-75
-77
-62
-62
-60
-46
-25
-7
8
31
39
22
11
12
9
6
4
-19
-66
-119
-165
-204
-241
-238
-185
-92
128
382
543
601
538
422
257
100
-65
-223
-280
-288
-225
-64
105
195
183
74
-80
-216
-249
-231
-237
-195
-99
37
181
265
263
189
69
-17
27
75
89
81
54
11
-113
-216
-243
-259
-273
-173
-32
105
257
350
370
290
185
57
-66
-147
-196
-208
-195
-152
-128
-94
-80
-89
-101
-130
-121
-95
-54
15
75
120
160
184
163
107
34
-48
-64
-69
-158
-255
-280
-283
-256
-155
-2
195
335
442
521
489
370
168
-51
-146
-162
-224
-263
-208
-158
-62
57
158
226
211
211
225
190
62
-52
-91
-112
-176
-276
-313
-284
-270
-218
-160
-176
-77
112
218
220
148
140
176
244
369
410
299
169
60
-104
-216
-309
-411
-417
-360
-276
-171
-100
-15
81
158
239
261
211
133
69
-34
-147
-204
-266
-223
-51
129
327
468
524
510
324
62
-94
-179
-241
-246
-232
-204
-181
-206
-228
-211
-195
-198
-150
-64
-26
15
95
100
75
112
122
46
-70
-132
-103
-52
22
125
183
242
275
227
117
-94
-279
-261
-163
-79
28
154
246
147
11
-14
-161
-321
-254
-38
249
422
497
628
632
408
6
-329
-432
-461
-401
-262
-97
61
135
180
205
125
-27
-140
-314
-481
-483
-389
-222
-97
-22
99
190
208
210
204
191
155
56
-14
-70
-59
1
16
72
218
372
381
279
93
-54
-105
-140
-153
-155
-145
-166
-251
-234
-125
-81
-14
4
-55
-155
-259
-272
-246
-152
-24
72
183
238
248
266
239
196
150
77
40
64
113
152
122
-12
-203
-393
-499
-533
-467
-311
-127
77
193
310
429
495
459
296
314
362
354
370
236
97
5
-93
-173
-200
-229
-280
-303
-296
-253
-231
-192
-175
-190
-216
-201
-153
-118
6
100
130
104
56
52
35
57
54
52
135
176
171
158
118
84
17
-49
-87
-70
-18
-31
-26
-19
-65
-150
-256
-332
-329
-228
-110
72
253
376
442
407
329
186
28
-61
-115
-125
-85
-49
-1
20
28
16
-56
-89
-79
-60
-56
-64
-60
-54
-39
-30
-53
-80
-105
-128
-127
-117
-61
21
121
205
241
294
311
249
118
11
-13
-6
-2
-46
-83
-62
-75
-104
-80
-85
-96
-81
-55
-29
-21
-32
-39
-31
-23
-14
-41
-26
14
22
24
12
24
22
27
43
38
50
55
20
1
9
11
8
-6
-7
-21
-52
-77
-102
-89
-53
-7
11
6
-23
-69
-62
-95
-254
-414
-418
-295
-157
16
250
456
575
654
652
560
460
287
119
55
68
132
142
95
56
12
-89
-208
-350
-467
-471
-441
-430
-405
-273
-140
-36
84
145
185
171
106
47
9
-40
-40
2
-19
-35
-39
-50
-71
-94
-75
-40
-19
12
41
66
104
97
50
-20
-98
-109
-70
-32
1
57
147
189
149
100
90
49
-56
-116
-123
-136
-108
-38
29
74
80
88
68
6
-19
-15
76
182
263
331
349
334
236
97
-62
-176
-275
-403
-441
-406
-405
-394
-379
-336
-211
-204
-201
-37
182
438
629
731
796
685
458
228
22
-122
-257
-271
-212
-159
-105
-51
-42
-207
-369
-446
-478
-433
-286
-119
34
146
125
68
6
-62
-50
74
296
566
733
806
774
560
248
-80
-314
-523
-660
-559
-393
-263
-137
-87
-91
-77
-177
-260
-232
-249
-137
65
181
298
443
525
445
324
245
46
-204
-294
-304
-339
-317
-201
-60
65
175
263
307
233
99
22
-167
-332
-296
-273
-215
-113
-39
71
118
62
31
17
4
-13
-74
-72
-62
2
149
257
392
446
377
230
38
47
110
2
-84
-165
-276
-307
-306
-398
-481
-387
-279
-196
-38
178
405
466
373
286
186
2
-171
-266
-297
-77
214
422
605
631
548
265
-57
-196
-283
-374
-439
-433
-316
-192
-130
-65
-38
-39
-52
-83
-69
-33
-79
-198
-234
-225
-200
-59
65
181
304
446
534
471
458
341
44
-95
-85
-54
-68
-157
-181
-163
-95
-9
-30
6
64
77
99
27
0
-39
-171
-184
-246
-353
-359
-311
-217
-158
-55
87
152
115
34
-10
1
50
115
230
405
571
655
617
481
248
-37
-221
-286
-307
-347
-378
-379
-318
-171
-50
34
133
171
143
90
-32
-112
-158
-266
-354
-440
-555
-602
-481
-251
3
331
651
896
1005
921
789
511
107
-220
-492
-645
-664
-624
-557
-417
-180
60
282
431
523
536
475
312
85
6
-22
-36
-79
-192
-235
-234
-246
-235
-161
-84
3
89
157
244
238
78
-69
-77
-87
-118
-87
-60
-86
-69
-19
15
57
64
51
32
24
29
45
79
70
17
-47
-72
-49
-54
-55
-63
-123
-168
-173
-168
-172
-140
-62
21
87
138
141
26
-134
-220
-228
-258
-201
44
281
445
546
537
349
47
-170
-270
-253
-159
-5
195
321
378
331
272
271
228
160
7
-144
-213
-269
-317
-320
-260
-180
-127
-112
-59
-19
-62
-44
-39
-107
-192
-260
-273
-266
-157
7
167
309
412
512
475
287
135
26
-106
-165
-135
-78
-25
-11
-42
-15
75
122
120
100
42
-55
-152
-255
-360
-377
-321
-213
-84
27
105
186
244
156
-6
-150
-223
-231
-146
-18
145
360
490
564
508
294
60
-105
-188
-309
-427
-466
-408
-292
-127
84
273
434
487
501
471
261
-16
-258
-425
-481
-475
-415
-275
-104
34
157
256
255
173
132
145
82
-97
-160
-47
77
149
176
173
151
121
12
-84
-127
-183
-221
-203
-147
-105
-59
-26
-9
1
-2
-12
-4
20
12
5
26
44
34
14
-9
-69
-171
-213
-202
-215
-149
-25
102
245
388
495
471
318
138
36
-55
-158
-196
-145
-85
-85
-62
-27
-1
12
9
19
-3
-65
-143
-154
-128
-92
-36
-49
-100
-129
-84
-13
60
181
238
268
329
345
267
171
95
-31
-105
-122
-145
-142
-128
-123
-122
-116
-102
-79
-57
-36
-29
-25
-30
-27
-16
-23
-20
-18
-17
-14
-17
-21
-21
-18
-4
-11
-22
12
22
-4
11
79
141
133
44
-57
-112
-155
-170
-114
-9
133
257
355
407
367
269
150
13
-112
-173
-193
-194
-231
-269
-218
-171
-99
-5
69
153
178
174
176
160
46
-58
-45
-52
-71
-75
-69
-54
-47
-56
-63
-67
-75
-56
-15
-2
-12
4
10
9
14
2
-3
-16
1
19
10
-15
-33
-26
-12
3
9
14
9
7
5
1
13
2
-70
-175
-220
-248
-238
-134
-16
110
215
326
405
358
241
145
123
69
-52
-99
-97
-124
-157
-125
-28
79
163
208
230
215
130
29
-32
-87
-174
-215
-234
-254
-216
-167
-99
-23
53
76
66
62
31
21
-20
-28
10
27
20
11
26
24
9
-17
-7
-1
-30
-51
-60
-36
-22
-37
-26
2
13
17
29
37
29
12
-1
-23
-16
6
18
25
31
42
39
33
12
4
5
5
14
16
17
0
-44
-121
-153
-123
-80
-4
82
152
185
189
192
122
6
-100
-204
-257
-261
-228
-155
-69
27
120
221
314
306
192
85
44
12
-35
-70
-106
-132
-138
-125
-67
25
117
153
182
229
227
185
82
-22
-82
-144
-185
-169
-152
-153
-142
-113
-110
-149
-134
-104
-68
-16
10
57
98
113
93
46
-1
-55
-95
-105
-109
-127
-130
-93
-16
90
169
237
268
258
300
316
235
155
60
-57
-121
-189
-295
-360
-338
-280
-210
-94
37
151
210
261
268
162
35
-41
-24
42
37
31
41
-11
-14
-52
-115
-135
-134
-62
-18
-1
2
14
51
40
25
-13
-98
-148
-154
-112
-61
-73
-87
-67
25
150
283
389
299
180
130
115
122
93
56
-37
-105
-143
-195
-196
-175
-208
-308
-351
-322
-264
-125
55
196
306
395
445
420
317
185
51
-34
-60
-90
-137
-220
-311
-390
-425
-375
-249
-76
119
292
397
452
429
307
112
-103
-243
-273
-199
-125
-65
9
60
94
97
84
55
12
-12
-36
-44
-18
-17
55
152
152
131
112
112
82
-8
-102
-128
-127
-107
-69
-67
-82
-125
-158
-160
-140
-109
-53
33
102
141
130
113
71
-16
-44
-51
-64
-71
-112
-145
-126
-89
-6
83
152
257
307
234
128
64
22
18
17
-4
1
56
103
101
46
-36
-58
-80
-78
-104
-143
-150
-183
-177
-183
-185
-153
-97
-32
11
75
146
150
107
106
80
46
59
72
64
-3
-74
-112
-132
-111
-83
-52
-8
46
69
35
46
92
100
84
94
143
160
130
111
112
51
-117
-334
-407
-337
-266
-146
2
134
238
309
336
279
178
78
32
17
-34
-60
-48
-47
-57
-72
-86
-86
-79
-87
-87
-64
-61
-89
-94
-68
-50
-43
-31
1
21
27
31
28
48
39
0
-7
-27
-59
-91
-94
-41
-3
-17
-19
7
24
30
38
119
188
191
182
159
127
61
30
19
-17
-82
-211
-337
-405
-403
-311
-132
81
270
418
513
526
414
244
86
-70
-194
-224
-178
-125
-77
-27
28
42
6
-45
-156
-246
-254
-219
-118
6
138
267
353
355
251
110
-31
-130
-148
-135
-143
-160
-152
-127
-105
-94
-119
-138
-150
-184
-157
-98
-17
101
198
243
208
213
253
244
248
211
90
-23
-63
-102
-147
-143
-131
-120
-98
-57
-6
45
40
-4
-61
-131
-145
-133
-77
21
61
65
40
32
41
-36
-67
22
112
193
228
158
14
-93
-143
-132
-60
21
130
192
195
171
119
76
-4
-70
-95
-130
-124
-107
-104
-80
-62
-71
-59
-16
13
22
-24
-102
-110
-102
-104
-73
-16
61
112
156
167
138
105
55
-8
-50
-54
-66
-71
-59
-44
-41
-47
-42
-47
-67
-75
-55
-39
-22
17
79
131
120
122
124
64
-17
-52
-59
-97
-112
-52
7
61
133
192
236
195
142
109
9
-86
-166
-183
-158
-187
-240
-292
-256
-188
-106
47
205
330
422
482
476
360
157
-90
-294
-325
-267
-215
-147
-91
-34
17
70
113
130
106
59
-19
-98
-105
-118
-147
-177
-183
-138
-138
-106
-15
64
136
186
213
200
154
36
-109
-189
-271
-348
-311
-223
-121
23
171
326
428
461
448
401
291
148
11
-91
-113
-162
-181
-177
-187
-160
-146
-147
-160
-163
-142
-99
-54
-28
3
44
79
105
112
85
67
46
-22
-31
9
20
31
57
78
69
90
101
55
-32
-129
-155
-129
-70
4
92
133
107
92
72
32
16
-15
-49
-37
-34
-35
-16
-16
-25
-24
-33
-44
-57
-97
-108
-86
-60
-27
31
83
100
86
71
78
78
77
24
-47
-118
-216
-277
-297
-268
-200
-80
87
232
347
422
418
362
261
121
11
-90
-151
-179
-185
-165
-165
-166
-163
-141
-115
-51
42
104
137
138
150
153
123
93
50
-20
-47
-36
-29
-37
-69
-72
-55
-45
-58
-95
-160
-220
-229
-206
-245
-348
-351
-269
-207
-110
94
356
588
784
921
960
910
713
403
130
-76
-238
-344
-374
-357
-362
-365
-357
-364
-331
-279
-229
-176
-137
-95
-69
-68
-61
-40
-19
9
33
29
32
54
53
57
82
92
97
82
46
49
62
35
12
-2
-32
-53
-36
-11
3
13
26
34
37
28
15
6
-53
-126
-154
-158
-122
-50
33
138
219
245
249
253
222
160
67
-9
-33
-48
-56
-70
-160
-305
-352
-355
-388
-342
-172
55
205
315
418
435
387
292
191
130
98
60
19
-18
-38
-62
-100
-120
-147
-164
-170
-176
-163
-127
-93
-39
-11
-13
11
-16
-31
-39
-55
-38
-9
1
-34
-29
-32
-44
-21
-16
-8
4
37
77
81
108
132
135
138
102
74
47
24
9
-13
-59
-112
-135
-138
-115
-82
-14
48
77
80
84
86
53
34
14
14
22
-23
-138
-250
-279
-280
-253
-123
99
286
417
481
491
488
369
190
13
-151
-249
-317
-358
-388
-368
-316
-252
-142
-40
90
186
243
246
209
202
125
45
-45
-146
-117
-29
28
23
24
14
-61
-163
-291
-360
-330
-304
-297
-249
-118
80
286
466
592
605
521
360
104
-109
-195
-234
-204
-124
-31
55
41
21
14
-57
-94
-42
26
83
125
57
-20
-97
-231
-293
-311
-271
-157
6
178
354
422
379
383
332
246
189
112
55
6
-50
-47
-54
-119
-178
-233
-291
-263
-205
-175
-160
-157
-166
-179
-110
-95
-139
-133
-84
1
-13
6
106
173
268
311
241
136
96
49
-53
-188
-313
-353
-351
-332
-298
-195
-10
138
277
495
617
668
697
539
287
80
-62
-205
-349
-397
-402
-385
-344
-349
-408
-359
-234
-148
14
171
268
311
259
112
-8
-15
9
25
113
311
514
621
619
477
314
248
76
-87
-137
-187
-159
-175
-261
-288
-337
-369
-353
-342
-309
-277
-233
-190
-142
-102
-52
1
16
42
51
33
36
64
62
22
17
23
17
28
64
83
69
89
118
109
124
154
127
77
51
14
2
5
-6
-16
-32
-34
-37
-45
-42
-42
-38
-27
-13
-13
-16
-4
-1
6
7
5
12
12
14
11
-1
-12
-39
-63
-71
-67
-39
-14
3
-20
-23
27
3
-51
-58
4
98
155
215
264
295
296
254
148
24
-50
-115
-189
-214
-196
-171
-130
-112
-89
-78
-69
-51
-46
-42
-44
-27
-21
-14
1
-3
7
19
16
20
24
-6
-66
-123
-136
-89
-14
17
18
65
123
165
187
202
239
233
180
122
82
24
-89
-168
-198
-176
-109
-81
-75
-82
-85
-55
-34
-42
-78
-88
-116
-191
-204
-125
-11
78
131
144
109
109
112
107
159
175
195
279
264
168
125
85
30
-62
-192
-291
-327
-342
-364
-307
-203
-85
33
128
224
258
259
263
251
183
27
-123
-171
-117
-49
-44
-46
-64
-99
-106
-110
-105
-90
-74
-71
-56
-47
-57
-31
9
61
99
132
164
180
217
210
118
61
22
-35
-78
-145
-156
-127
-117
-106
-153
-185
-184
-244
-268
-179
-11
191
326
421
485
512
457
312
180
32
-102
-152
-155
-148
-173
-205
-248
-327
-469
-676
-756
-631
-382
-24
353
688
957
1096
1066
895
664
403
72
-218
-362
-457
-473
-420
-385
-345
-276
-229
-229
-152
-81
-69
-49
-42
-28
-32
-39
-34
-29
-2
32
43
37
37
52
55
26
27
42
39
15
-24
-19
0
15
31
14
3
-75
-259
-380
-364
-334
-266
-82
196
466
662
816
877
790
584
319
27
-178
-291
-363
-359
-327
-274
-228
-205
-205
-193
-161
-133
-104
-82
-49
-23
7
36
44
51
43
43
28
-4
-23
-24
-11
-9
-2
1
4
17
33
27
12
12
8
12
20
11
4
-6
-51
-64
-52
-84
-88
-60
-55
-29
11
50
99
130
140
135
128
125
104
74
60
57
47
49
46
12
-5
-3
-42
-99
-123
-130
-127
-134
-108
-64
-59
-64
-65
-69
-56
-32
3
14
-11
-34
-42
-3
44
86
133
169
191
186
162
110
55
-15
-84
-153
-226
-234
-183
-127
-46
44
99
171
212
203
185
145
78
-13
-82
-113
-108
-89
-79
-63
-49
-46
-40
-37
-56
-76
-67
-50
-26
-2
17
49
77
95
95
74
57
42
11
-4
7
7
-4
-20
-39
-42
-43
-36
-29
-27
-25
-21
-12
-7
2
1
5
11
4
7
9
9
6
5
4
7
15
9
-11
-14
5
7
5
5
2
3
0
6
12
4
-1
1
-1
4
-2
-7
-4
-5
-8
-13
-7
1
1
-1
4
1
-5
-1
-3
-1
-5
-11
-6
-6
0
-4
2
17
21
19
2
-12
-12
-11
-9
-6
-9
-6
-1
0
-2
-2
2
0
-7
-7
-2
-8
-31
-46
-46
-49
-41
-23
4
27
34
29
-11
-27
-16
-10
24
60
102
143
165
162
115
83
72
11
-39
-73
-102
-110
-113
-94
-77
-69
-57
-60
-66
-61
-51
-31
1
31
54
66
72
62
47
29
7
4
-4
-10
-12
-14
-10
-3
-4
-9
-9
-8
-7
-6
-4
-1
0
-4
2
5
-1
1
-5
-7
-6
-9
-9
-9
-7
-9
-9
-7
-6
-1
6
6
6
9
7
3
6
7
0
2
9
14
13
6
-1
-18
-33
-39
-34
-29
-22
-19
-16
-33
-74
-84
-80
-80
-67
-26
31
70
125
186
231
248
240
211
151
111
79
34
-17
-60
-76
-98
-108
-107
-108
-97
-87
-83
-87
-81
-60
-52
-54
-45
-39
-32
-17
-17
-9
-2
-1
7
6
8
15
16
12
13
16
18
18
15
11
10
7
11
19
12
-6
-17
9
38
26
4
0
4
9
18
15
2
1
9
2
-6
2
8
5
0
-12
-23
-34
-54
-60
-53
-27
7
15
19
22
19
31
46
54
57
57
63
65
59
50
31
6
-12
-26
-48
-76
-72
-65
-62
-49
-36
-20
-14
-11
-16
-26
-21
-13
-11
-3
9
17
9
-11
-17
-5
-2
0
12
26
49
64
55
42
50
43
20
-1
-11
-12
-19
-16
-6
-7
-3
-11
-19
-12
-12
-11
-14
-15
-11
-11
-11
-13
-13
-14
-11
-3
2
6
7
11
12
-1
-12
-28
-54
-80
-92
-87
-73
-60
-52
-31
-2
31
62
107
152
163
159
153
157
153
128
94
47
-11
-63
-103
-131
-142
-135
-95
-41
2
22
21
15
4
-26
-57
-83
-97
-96
-94
-79
-49
-12
13
30
34
32
49
51
49
49
39
29
14
-19
-46
-51
-59
-60
-34
1
31
65
97
112
100
54
4
-24
-72
-135
-123
-94
-101
-102
-71
-24
12
49
82
92
70
67
67
57
94
133
157
192
218
201
165
118
42
-43
-120
-169
-176
-158
-137
-114
-90
-66
-60
-68
-62
-55
-56
-60
-60
-51
-29
-15
-10
3
19
36
42
51
62
54
28
-6
-37
-48
-42
-31
-24
-31
-34
-41
-54
-61
-75
-60
-27
4
49
99
142
159
142
121
92
42
1
-53
-85
-99
-135
-125
-77
-27
33
74
135
194
171
138
130
110
41
-5
-10
-26
-38
-67
-85
-114
-118
-98
-113
-124
-128
-88
-40
-18
-1
21
50
47
47
47
69
107
130
153
140
81
16
-26
-58
-79
-84
-82
-74
-62
-55
-54
-46
-35
-24
-21
-22
-14
-7
-6
-2
1
1
3
5
6
3
2
6
6
7
7
4
-4
-1
-4
-19
-39
-63
-77
-89
-79
-32
47
130
186
213
205
177
122
41
-49
-129
-166
-193
-205
-193
-153
-79
22
139
215
269
273
206
123
18
-87
-133
-138
-132
-90
-41
-2
12
22
27
20
41
58
39
23
22
3
-30
-54
-68
-93
-109
-98
-89
-90
-84
-55
-16
14
46
75
82
95
92
55
27
26
26
30
28
4
-14
-16
-12
-1
-2
-5
-8
-8
-1
-13
-26
-37
-47
-69
-106
-117
-95
-60
-22
20
77
114
118
105
72
39
0
-32
-15
16
25
25
21
24
27
32
45
50
36
5
-14
-24
-37
-31
-16
-7
16
31
24
19
9
0
-27
-54
-47
-34
-35
-37
-37
-28
-24
-34
-28
-18
-19
-18
-16
-9
4
15
19
15
10
13
2
-22
-36
-44
-49
-44
-29
-6
29
55
68
84
89
94
64
12
-15
-44
-64
-80
-79
-80
-89
-79
-36
29
69
59
36
51
75
85
102
124
125
80
41
47
68
62
9
-46
-80
-119
-140
-140
-115
-80
-55
-29
-3
35
56
54
47
41
32
-9
-39
-47
-46
-45
-47
-43
-46
-38
-17
-1
14
30
34
31
29
11
11
24
19
12
0
1
1
-24
-42
-60
-62
-34
-9
2
13
16
5
-11
-34
-44
-51
-49
12
89
171
241
264
224
128
55
-30
-112
-136
-133
-104
-90
-118
-144
-127
-110
-93
-67
-44
29
137
228
249
224
216
175
89
22
-24
-76
-142
-197
-228
-238
-195
-153
-135
-93
-19
54
75
86
118
128
122
107
81
72
49
25
23
-10
-27
-28
-44
-53
-93
-123
-123
-133
-168
-191
-157
-90
-22
37
145
276
329
314
273
220
131
4
-54
-48
-54
-57
-36
2
6
-19
-34
-54
-62
-68
-92
-104
-109
-114
-114
-128
-129
-109
-84
-44
14
62
100
131
118
87
87
92
62
37
65
65
28
16
23
27
36
39
18
-29
-84
-110
-131
-131
-92
-36
0
35
95
113
95
52
-17
-45
-48
-67
-99
-103
-60
-34
-29
-17
-16
-22
-9
26
21
22
96
182
249
275
229
126
-17
-157
-249
-273
-224
-145
-39
85
176
220
193
154
105
14
-42
-57
-72
-91
-112
-161
-190
-190
-185
-138
-81
-51
-30
4
-14
-39
-10
-15
17
105
191
296
365
370
299
173
12
-160
-307
-395
-359
-302
-233
-97
88
244
297
296
274
230
128
-25
-140
-165
-178
-165
-118
-104
-82
-74
-57
14
90
85
66
82
107
137
124
104
36
-64
-95
-125
-157
-116
-47
4
33
52
51
24
-9
-56
-63
-19
28
56
50
6
-82
-133
-100
-46
12
30
29
46
59
72
65
38
2
-17
-9
-30
-30
-11
-26
-19
-33
-67
-68
-71
-44
11
58
111
141
120
94
58
48
79
72
55
47
-2
-50
-57
-52
-50
-55
-77
-87
-94
-111
-115
-99
-53
-11
-11
-21
8
21
-40
-57
8
43
28
-16
-16
1
25
68
95
185
260
267
249
236
211
120
9
-90
-148
-192
-214
-190
-167
-105
-36
-1
14
-16
-79
-137
-171
-169
-168
-179
-153
-97
-30
33
95
145
143
128
127
112
96
54
-19
-39
-17
7
1
14
49
32
21
55
80
62
62
92
62
19
14
-7
-18
9
17
14
-14
-64
-68
-50
-49
-56
-53
-30
9
9
-19
-59
-90
-85
-62
-18
34
82
72
32
14
-7
-44
-74
-80
-34
22
54
103
146
143
117
81
39
4
-32
-61
-77
-101
-158
-223
-264
-271
-226
-152
-81
22
154
268
337
379
347
259
199
155
72
-31
-107
-185
-223
-220
-202
-146
-92
-54
-19
37
93
127
132
94
55
41
-1
-70
-125
-135
-98
-62
-55
-68
-85
-96
-101
-65
10
75
94
51
31
65
104
112
118
175
210
194
144
111
72
-21
-91
-170
-193
-158
-105
-59
-40
-30
-98
-167
-171
-137
-104
-85
-40
5
42
56
69
115
135
147
160
138
125
130
133
119
85
44
-27
-80
-111
-175
-249
-277
-270
-218
-103
5
107
197
228
203
171
165
153
105
9
-94
-146
-133
-102
-57
-5
-32
-104
-120
-133
-155
-150
-166
-150
-31
99
180
198
172
179
191
196
187
129
52
30
53
40
-11
-62
-125
-128
-93
-90
-119
-156
-157
-159
-137
-110
-79
-43
-22
31
65
85
110
152
186
177
165
94
7
-41
-77
-107
-182
-232
-155
-47
46
138
191
196
174
176
187
140
23
-52
-83
-188
-304
-362
-303
-180
-41
155
302
390
407
326
247
158
-2
-130
-152
-107
-62
-44
-69
-128
-188
-191
-196
-219
-181
-135
-105
-87
-99
-79
2
52
51
32
50
99
146
193
177
110
-11
-138
-152
-146
-215
-197
-48
125
215
272
342
297
218
140
30
-6
10
14
-45
-111
-141
-179
-133
-59
-59
-21
22
34
52
47
10
-112
-240
-286
-282
-238
-158
-22
110
246
379
439
440
331
133
-15
6
9
-69
-52
-7
33
57
-7
-180
-370
-381
-232
-170
-132
7
147
217
191
127
67
-10
-97
-110
-77
-76
-83
-59
8
75
120
115
115
115
99
80
-69
-227
-271
-251
-195
-122
-17
95
188
214
210
162
94
10
-69
-82
-87
-57
-14
51
121
115
63
56
45
-29
-57
-55
-72
-67
-22
-26
-66
-84
-89
-40
19
74
92
82
94
77
47
9
-14
-12
-21
-16
-12
-1
-24
-93
-154
-215
-272
-256
-174
-82
24
134
243
294
304
276
231
167
49
-4
-29
-88
-133
-160
-215
-272
-251
-161
-33
102
200
258
286
266
205
133
58
-36
-80
-69
-67
-97
-159
-138
-53
-2
21
27
19
-37
-130
-168
-170
-162
-109
-17
78
158
196
194
159
115
61
-45
-123
-193
-268
-313
-294
-187
-78
21
155
295
381
418
405
320
135
-87
-164
-143
-133
-152
-148
-62
24
66
47
33
18
-18
-49
-100
-135
-146
-107
-11
73
103
104
77
21
-31
-75
-142
-173
-162
-140
-80
3
144
244
249
251
235
160
69
42
41
4
-45
-81
-100
-92
-105
-117
-91
-69
-51
-59
-119
-174
-164
-149
-132
-91
-39
42
112
153
171
149
86
48
64
115
120
50
1
-16
-52
-83
-65
-24
12
65
128
171
182
138
52
-75
-174
-187
-168
-135
-105
-62
-26
-12
47
98
33
-44
-39
1
41
84
137
142
72
3
2
-7
-69
-82
-49
-41
-58
-52
-43
-32
-16
-9
6
-10
-28
-16
-17
-19
-29
-42
-55
-57
-28
11
48
78
113
129
112
70
10
-59
-135
-151
-104
-51
-21
-13
-1
27
37
15
40
86
107
119
128
161
191
167
98
0
-136
-212
-238
-218
-127
-64
-4
71
145
161
75
-61
-123
-84
-45
-19
39
122
173
170
163
127
-6
-147
-213
-216
-205
-178
-105
-58
-59
-72
-67
-39
-2
-7
24
148
219
222
204
104
-26
-82
-76
-64
-75
-84
-43
7
44
70
72
72
45
28
54
69
57
46
16
-67
-111
-83
-61
-57
-55
-49
-30
22
84
82
23
-10
-19
-38
-44
-46
-49
-60
-45
1
15
8
15
14
-5
-55
-107
-110
-92
-32
3
-9
25
96
170
235
253
203
119
44
-57
-112
-86
-84
-70
-35
-1
26
26
0
-1
19
1
-21
-44
-61
-60
-62
-62
-55
-39
-13
6
34
55
51
42
26
11
-11
-28
-18
-8
-1
2
-1
-17
-39
-49
-44
-30
-29
-42
-52
-49
-24
9
41
70
86
101
118
113
77
44
29
4
-21
-61
-85
-90
-107
-136
-166
-144
-91
-22
46
106
113
79
92
124
137
138
101
80
102
100
122
109
33
-24
-43
-32
-37
-63
-92
-125
-178
-210
-218
-201
-138
-66
7
74
119
130
135
97
32
14
-28
-112
-138
-122
-90
-27
-6
12
73
123
130
57
-64
-153
-166
-130
-99
-62
19
99
130
147
157
186
216
215
191
116
38
-19
-129
-192
-157
-125
-75
-39
-50
-3
100
162
137
57
-4
-27
-57
-65
-46
-31
-42
-64
-69
-81
-112
-194
-277
-306
-264
-150
14
194
297
349
400
418
364
223
51
-127
-327
-452
-493
-443
-274
-77
141
332
433
490
455
313
139
-89
-256
-249
-203
-168
-113
-75
-23
69
140
172
135
46
-21
-60
-52
-37
-85
-137
-105
-47
-13
29
62
53
4
-25
-34
-89
-137
-131
-95
-47
-11
31
77
88
107
100
46
-14
-44
-40
-17
17
64
123
125
74
15
-12
-24
-92
-96
-41
-24
-34
-51
-56
-98
-90
-52
-66
-26
84
219
302
258
158
87
12
-59
-94
-128
-167
-205
-218
-211
-159
-44
70
155
180
175
129
51
-60
-198
-234
-201
-97
65
156
236
270
227
186
162
126
59
12
-47
-94
-122
-164
-128
-61
12
104
128
88
-9
-65
-70
-148
-197
-132
-51
-7
21
43
80
91
27
-54
-83
-74
-77
-58
-19
9
54
72
41
-24
-84
-112
-115
-114
-113
-79
-42
14
55
48
51
68
105
135
188
224
209
175
53
-100
-201
-222
-202
-184
-159
-105
-7
95
176
240
254
176
53
-19
9
33
-1
-42
-141
-218
-194
-190
-150
-32
81
171
234
298
308
215
84
14
-6
-4
-34
-99
-160
-223
-251
-271
-253
-213
-127
-31
12
66
125
155
135
102
102
105
48
-26
-61
-47
-30
-32
11
65
98
132
150
86
-27
-86
-75
-56
-37
-25
-50
-50
-47
-74
-89
-80
-84
-95
-37
37
81
87
105
165
192
167
62
-61
-144
-147
-115
-92
-37
-4
42
63
42
1
-65
-79
-52
-39
-40
-9
57
137
157
172
206
196
198
156
76
-2
-65
-162
-224
-199
-182
-161
-165
-150
-105
-54
-10
-9
4
26
59
80
82
78
46
10
-27
-34
-39
-30
6
30
59
85
95
59
37
41
-37
-144
-229
-263
-208
-190
-147
-10
112
227
308
346
347
234
77
-18
-84
-110
-116
-107
-90
-60
72
155
153
157
121
70
38
2
-34
-71
-119
-205
-347
-420
-361
-257
-150
-29
117
183
201
273
334
279
48
-122
-142
-134
-113
-114
-37
74
110
127
126
64
-5
11
93
172
168
143
122
84
6
-95
-132
-173
-167
-132
-112
-89
-95
-132
-183
-203
-203
-176
-123
-98
-88
-27
49
53
77
143
195
240
287
398
445
376
252
110
4
-113
-168
-164
-140
-115
-124
-119
-99
-54
-6
44
62
-7
-54
-57
-94
-190
-316
-407
-391
-271
-74
175
324
372
382
334
244
112
32
69
80
46
-18
-48
-50
-143
-233
-222
-127
-23
38
86
125
133
142
123
59
-14
-62
-89
-130
-130
-142
-163
-185
-214
-162
-116
-58
24
115
244
312
309
274
184
37
-92
-216
-292
-286
-238
-103
19
91
164
210
210
107
-4
-54
-48
9
3
-53
-87
-67
-21
29
105
194
272
284
259
177
52
-87
-244
-319
-334
-364
-377
-335
-218
-57
58
176
286
314
339
359
329
229
82
-57
-117
-148
-203
-233
-243
-205
-155
-63
90
179
158
94
103
132
102
32
-57
-137
-185
-186
-138
-64
-6
31
60
90
102
85
41
-44
-117
-125
-96
-60
-51
-64
-69
-42
-16
8
70
102
84
101
133
103
37
-44
-153
-216
-199
-149
-97
-30
78
130
168
282
359
324
153
11
-9
16
51
-22
-110
-138
-142
-76
-9
24
43
22
11
26
33
43
-2
-85
-122
-113
-91
-69
-7
48
52
59
48
-41
-148
-168
-144
-102
-29
47
91
114
97
44
7
-82
-168
-174
-134
-71
-1
75
122
132
123
125
69
-46
-107
-137
-193
-222
-157
-46
64
150
218
272
286
271
227
193
103
-46
-138
-175
-160
-157
-229
-294
-244
-149
-43
89
213
334
367
334
262
102
-93
-217
-256
-216
-108
-4
94
130
118
36
-88
-153
-215
-277
-258
-151
-28
72
155
243
296
290
218
180
142
-15
-139
-205
-228
-221
-195
-147
-107
-29
42
107
138
88
17
-22
-19
-41
-79
-56
-4
3
-22
17
87
113
102
51
29
32
57
66
19
-25
-100
-219
-342
-367
-277
-122
83
253
355
400
385
308
183
65
-12
-85
-133
-105
-88
-103
-122
-113
-76
-52
-36
-49
-41
4
63
104
67
31
-1
-60
-93
-119
-130
-82
-17
14
65
104
65
33
21
-17
-51
-82
-119
-115
-74
-26
9
4
19
37
68
125
170
206
192
120
1
-133
-289
-372
-312
-215
-103
21
166
305
405
430
374
326
233
89
17
-27
-53
-93
-182
-187
-171
-143
-120
-128
-115
-173
-263
-280
-210
-112
-26
74
174
190
168
171
155
125
44
-21
-19
-29
-84
-95
-59
-26
-2
-29
-70
-125
-165
-145
-126
-137
-120
-70
-6
130
266
361
390
317
251
218
160
74
-42
-125
-133
-173
-177
-140
-159
-173
-152
-122
-67
19
118
188
143
69
5
-74
-115
-160
-197
-113
1
92
166
161
96
-4
-10
67
92
142
218
246
226
181
90
-43
-218
-398
-418
-402
-401
-300
-156
20
171
296
395
403
332
218
63
-110
-269
-373
-382
-343
-290
-221
-138
-15
111
178
234
270
240
203
177
125
109
120
130
41
-181
-299
-296
-237
-126
2
77
54
49
64
34
11
11
29
123
278
387
402
332
185
27
-47
-104
-141
-105
-113
-140
-112
-71
-57
-51
-38
-75
-162
-215
-211
-265
-349
-344
-249
-190
-151
-4
183
306
345
299
193
54
-147
-237
-202
-133
6
195
388
503
539
406
170
-34
-196
-263
-264
-269
-297
-249
-144
-100
-67
37
157
224
258
158
-85
-319
-420
-456
-375
-120
198
466
546
605
669
618
393
47
-228
-335
-249
-150
-82
-24
-18
-74
-118
-120
-253
-445
-525
-455
-305
-76
179
366
495
556
552
385
194
39
-138
-269
-381
-397
-336
-229
-160
-109
-50
-29
83
150
176
228
180
85
-18
-87
-158
-232
-208
-183
-165
-64
64
165
196
223
315
301
182
3
-243
-322
-292
-216
-22
148
293
420
425
448
473
326
75
-168
-311
-320
-308
-297
-306
-327
-279
-272
-284
-273
-238
-161
-89
64
262
400
511
596
568
413
158
-79
-260
-412
-449
-344
-109
139
316
359
336
212
-12
-125
-220
-329
-357
-294
-174
-73
-1
32
27
-21
-130
-153
-52
21
77
117
182
259
267
251
217
185
130
72
75
62
-24
-186
-410
-556
-514
-347
-180
11
251
401
465
430
318
151
-57
-264
-435
-493
-445
-287
-130
34
189
248
259
257
256
198
113
49
34
82
115
74
-33
-181
-342
-465
-402
-237
-106
75
264
403
430
367
350
309
87
-227
-398
-367
-243
-111
57
279
402
428
399
256
77
-113
-279
-375
-370
-273
-175
-82
-49
-32
-31
-54
-80
-199
-327
-437
-481
-434
-379
-222
59
292
268
130
86
72
107
196
346
595
693
635
549
447
308
35
-83
-55
-90
-99
-145
-165
-120
-130
-148
-145
-158
-170
-171
-187
-190
-165
-145
-167
-193
-172
-118
-82
-112
-208
-379
-560
-620
-479
-214
100
473
706
737
767
846
724
471
358
254
156
148
180
132
2
-128
-266
-334
-334
-317
-281
-284
-292
-231
-171
-143
-149
-153
-148
-152
-143
-163
-168
-126
-100
-103
-94
-123
-94
51
129
142
156
262
359
409
448
392
334
221
188
304
281
117
-3
-56
-79
-83
-128
-166
-200
-228
-209
-181
-182
-212
-223
-225
-205
-166
-128
-80
-49
-11
13
-7
-60
-122
-104
-47
-16
29
91
160
260
386
405
319
205
110
-38
-261
-423
-526
-471
-304
-115
173
456
625
680
700
548
251
32
-160
-238
-300
-425
-450
-369
-281
-262
-203
-131
-84
-61
-48
9
89
196
248
253
285
317
324
304
248
143
8
-128
-232
-314
-357
-357
-352
-267
-98
62
162
185
147
16
-222
-419
-432
-381
-297
-37
294
538
684
763
667
445
246
-34
-194
-266
-405
-380
-299
-241
-168
-82
0
16
24
7
-15
-21
-12
28
46
-28
-110
-127
-112
-79
-85
9
160
249
294
159
-206
-516
-517
-477
-367
-56
311
612
683
663
562
414
216
-65
-110
49
173
186
134
118
19
-179
-329
-423
-407
-298
-217
-137
-36
7
-47
-78
-26
13
-1
-60
-80
-69
-60
-49
-42
-28
-34
-64
-73
-16
47
79
93
69
16
-29
-79
-160
-228
-266
-205
-54
112
245
344
472
504
460
379
205
-24
-327
-607
-644
-530
-359
-91
193
455
591
660
603
336
-32
-374
-451
-336
-176
14
183
261
220
156
135
135
49
-71
-127
-161
-198
-216
-216
-173
-127
-126
-87
-63
-42
1
-7
-21
-1
-11
-72
-179
-286
-355
-466
-466
-297
-67
153
394
672
736
595
412
277
113
-53
-54
-21
36
132
249
326
249
148
25
-133
-261
-348
-355
-335
-317
-226
-54
55
100
103
53
-17
-85
-153
-278
-382
-440
-462
-414
-337
-275
-159
49
307
586
793
943
905
763
630
384
195
58
-131
-309
-412
-396
-351
-316
-269
-210
-180
-211
-196
-201
-266
-292
-253
-191
-117
22
115
180
180
178
271
250
163
-11
-239
-375
-375
-249
-68
146
358
521
605
683
689
530
188
-147
-306
-349
-364
-435
-506
-576
-503
-272
-10
259
443
576
585
515
381
142
-109
-244
-297
-396
-412
-318
-127
-9
-1
65
123
153
120
72
29
-9
-71
-192
-233
-228
-233
-203
-152
-87
9
105
152
145
100
-4
-150
-264
-355
-330
-251
-190
-12
260
503
680
838
842
615
338
75
-213
-308
-221
-225
-178
-7
130
142
162
179
42
-96
-233
-326
-326
-359
-407
-388
-324
-251
-130
9
111
97
25
-13
-30
-69
-159
-186
-164
-50
152
323
468
495
508
602
658
620
445
294
94
-223
-366
-365
-394
-458
-507
-529
-433
-317
-240
-133
-46
80
121
29
-110
-190
-311
-525
-574
-423
-153
113
383
675
871
890
784
641
418
236
115
12
-89
-226
-242
-164
-80
-118
-244
-296
-381
-489
-604
-640
-526
-373
-208
-5
319
590
776
887
828
719
512
259
80
-112
-296
-311
-272
-253
-182
5
150
268
344
196
110
1
-195
-377
-438
-471
-511
-397
-270
-87
22
75
145
95
-181
-586
-758
-718
-582
-398
-90
273
514
725
819
778
561
249
113
6
-175
-344
-311
-76
93
151
152
149
99
79
117
147
244
390
461
473
397
83
-308
-513
-499
-281
31
244
309
230
176
162
-68
-269
-301
-318
-299
-282
-266
-314
-320
-294
-431
-628
-672
-567
-432
-210
77
316
345
317
341
451
529
342
324
408
419
493
389
357
393
291
218
152
135
71
-17
-162
-365
-433
-482
-482
-453
-402
-300
-227
-152
-120
-127
-170
-238
-254
-355
-724
-1102
-1192
-1084
-726
21
846
1486
1975
2336
2573
2377
1590
735
95
-426
-778
-935
-874
-773
-708
-610
-516
-446
-437
-430
-404
-334
-269
-304
-466
-601
-519
-329
-126
170
495
652
687
704
673
594
329
-64
-131
-68
-113
-120
-156
-165
-168
-211
-220
-178
-118
-91
-66
-44
-33
-4
28
9
-12
-50
-136
-263
-370
-366
-420
-393
-63
269
516
770
1000
1069
926
776
519
148
-173
-358
-355
-335
-324
-323
-332
-324
-386
-427
-417
-430
-432
-453
-505
-388
-142
123
362
608
871
924
869
740
591
408
72
-175
-268
-279
-290
-332
-335
-275
-231
-239
-218
-173
-147
-120
-82
-58
-60
-87
-144
-236
-284
-252
-148
-24
97
253
371
456
488
466
379
236
110
-60
-171
-182
-178
-163
-145
-128
-102
-72
-74
-60
-35
-24
-7
2
0
16
32
31
21
9
4
-36
-118
-269
-415
-438
-364
-191
87
337
473
524
515
502
382
183
102
63
69
136
174
170
108
1
-123
-228
-326
-378
-394
-395
-452
-556
-552
-470
-344
-130
148
401
599
609
525
467
322
208
107
94
190
200
155
92
61
-22
-162
-204
-205
-215
-241
-270
-266
-231
-175
-137
-107
-80
-57
-34
-22
-7
12
24
22
25
22
32
43
40
42
46
41
19
21
33
39
52
41
26
26
26
14
5
6
-16
-37
-39
-14
7
22
52
75
90
100
101
79
26
-27
-39
-52
-54
-49
-39
-22
-24
-24
-24
-12
-14
-46
-80
-74
-46
-22
17
55
71
31
2
2
4
4
9
63
105
117
115
99
90
52
-21
-73
-107
-126
-117
-100
-77
-59
-51
-47
-35
-16
-12
-11
-7
0
6
5
4
-4
4
14
14
12
11
16
15
14
14
15
19
15
16
18
10
16
15
3
1
1
4
1
7
9
5
9
2
2
7
5
1
4
2
-4
-6
1
2
-12
-17
-11
-1
-6
-17
-21
-20
-25
-34
-47
-49
-37
-12
49
87
73
37
36
66
65
62
44
28
24
12
6
-8
-11
-25
-57
-79
-75
-62
-49
-32
-22
-17
-11
-3
-4
-4
1
-2
-5
1
3
-1
3
9
15
9
7
16
14
7
3
2
0
-1
2
1
2
4
1
5
2
5
8
2
0
1
5
2
1
-3
-8
-9
-11
-4
-3
-3
-1
-5
-4
-1
1
7
7
9
7
4
2
-1
3
-8
-16
-4
-4
-6
-12
-16
-12
-7
-1
2
3
-4
-1
8
19
21
-1
-16
-7
1
1
-2
-6
4
6
3
6
3
1
2
1
0
-5
-10
-16
-15
-9
-12
-14
-12
-11
-16
-21
-15
-9
-2
-3
-7
12
26
21
19
16
16
15
12
14
11
4
8
12
4
-1
7
14
13
16
18
19
16
14
10
3
-1
-9
-12
-16
-24
-22
-11
-7
-9
-7
-8
-16
-14
-3
-2
-6
-3
-4
0
-2
-4
-1
-3
-3
0
4
6
6
6
7
6
4
2
-1
1
0
-5
1
4
1
-1
-1
-3
-1
-4
-7
-4
-1
2
1
1
0
-1
-1
-5
-2
-5
-6
-4
-2
6
3
-1
-1
-2
-4
1
2
-3
-4
6
11
1
0
1
6
9
5
2
1
3
6
8
7
4
2
1
-2
-4
-2
-1
-3
-4
0
4
7
4
1
-2
-8
-9
-19
-15
-9
-11
-7
-6
-5
-6
-2
-2
-5
2
6
0
-7
-8
-5
4
6
4
-2
-6
-1
0
2
5
12
12
7
11
6
2
0
3
7
5
7
-3
-8
-10
-4
2
-5
-9
-11
-11
-12
-11
-7
-7
1
7
4
4
3
2
2
-6
-9
-9
-3
2
4
6
1
-1
0
3
4
5
3
-2
-4
-4
-4
-9
-10
-5
-3
5
11
6
-1
2
-1
-1
6
10
6
1
4
-1
-1
3
4
8
5
5
3
5
3
-1
4
5
-1
-2
2
-4
-19
-44
-49
-14
-1
8
30
39
42
48
44
32
23
2
-22
-37
-33
-19
-17
-21
-14
-6
0
9
6
-10
-29
-37
-41
-33
-16
-4
12
36
58
57
50
48
26
-4
-7
-9
-22
-27
-28
-30
-26
-17
-14
-16
-17
-6
-4
-9
1
1
-2
3
2
0
2
4
11
11
12
9
2
-1
-4
-3
-5
-11
-28
-38
-43
-51
-47
-31
-12
-17
-22
1
34
61
79
89
92
95
99
98
77
46
3
-46
-63
-61
-57
-47
-33
-26
-21
-22
-24
-18
-23
-36
-34
-23
-18
-12
-3
5
6
-1
-3
-14
-23
-22
-19
-18
-19
-7
11
35
47
55
60
62
59
55
65
59
25
-1
-13
-45
-58
-46
-46
-34
-26
-21
-25
-35
-51
-70
-74
-68
-51
-34
-12
2
-4
7
23
17
17
42
48
53
91
130
157
160
142
95
35
9
-21
-76
-120
-119
-112
-102
-65
-39
-16
11
32
35
22
17
1
-18
-21
-7
-17
-28
-19
-23
-31
-36
-31
-15
-6
0
1
1
-1
-11
-39
-71
-68
-44
-22
11
42
62
64
61
64
60
67
67
26
-1
9
8
10
9
-8
-26
-44
-57
-60
-57
-50
-37
-32
-32
-34
-33
-17
7
43
69
82
99
111
125
121
96
54
14
-29
-46
-43
-48
-45
-51
-55
-58
-62
-57
-41
-26
-18
-15
-12
-4
1
-7
-16
-17
-26
-44
-67
-80
-70
-32
12
58
118
141
139
128
105
76
22
-11
-32
-32
4
18
8
-18
-69
-128
-153
-147
-122
-50
40
99
131
157
170
147
92
37
-18
-58
-75
-79
-75
-75
-55
-33
-25
-7
0
-4
-1
-4
-5
-2
-12
-31
-26
-17
-22
-22
-21
-2
13
16
32
45
61
59
24
-11
-23
-17
-30
-55
-70
-60
-18
-4
11
49
52
34
21
21
31
53
56
36
49
63
42
-2
-55
-102
-115
-112
-112
-109
-89
-31
35
102
177
217
180
100
60
32
-3
-12
-31
-65
-79
-84
-79
-83
-100
-107
-115
-121
-122
-99
-47
12
90
177
234
242
212
157
76
-6
-39
-69
-113
-127
-130
-133
-128
-115
-97
-59
-19
24
89
143
153
118
85
52
29
8
-43
-84
-100
-85
-59
-51
-39
-29
-9
31
60
77
100
122
105
87
84
39
-18
-57
-89
-99
-74
-57
-74
-90
-85
-64
-36
4
46
77
107
125
115
81
42
2
-37
-43
-44
-47
-52
-49
-29
-39
-55
-26
1
-8
12
26
16
24
4
-27
-37
-36
-29
-18
-24
-46
-41
-11
9
28
48
38
41
70
73
60
82
137
176
168
127
70
-14
-89
-120
-126
-118
-97
-85
-67
-46
-49
-72
-93
-86
-75
-71
-47
-5
36
67
89
94
74
28
-14
-32
-51
-66
-62
-49
-18
32
67
74
82
69
40
22
1
-10
-29
-49
-42
-37
-37
-11
43
76
84
80
79
58
16
-18
-43
-29
9
34
29
-7
-33
-36
-46
-59
-70
-66
-45
-32
-44
-60
-57
-51
-17
20
52
96
111
99
99
95
49
4
-23
-44
-48
-48
-49
-51
-42
-32
-27
-16
0
13
14
20
30
37
37
29
19
12
-2
-19
-24
-23
-15
-25
-45
-62
-60
-33
-7
9
21
34
39
42
40
17
-8
-16
-31
-61
-69
-68
-58
-19
28
77
128
160
134
84
50
26
-15
-52
-54
-42
-25
-14
-10
-11
-6
-11
-14
-21
-40
-37
-29
-19
-16
-22
-19
-21
-22
-16
-13
-26
-22
-17
-24
-35
-55
-51
-26
9
63
121
153
156
153
129
99
51
3
-26
-41
-40
-52
-57
-50
-46
-53
-71
-86
-89
-62
-51
-55
-39
-26
4
41
70
81
88
110
108
84
33
-16
-37
-54
-72
-90
-91
-72
-45
-14
11
26
18
5
2
-2
-19
-32
-19
-4
17
37
52
55
55
46
32
35
24
8
-22
-46
-37
-25
-12
-15
-14
-11
-21
-36
-37
-21
-9
-7
-9
-2
-8
-19
-7
-11
-24
-18
2
34
57
66
70
75
69
59
53
32
3
-12
-11
-21
-31
-27
-37
-59
-75
-69
-52
-41
-36
-29
-2
47
70
61
36
21
14
-2
7
2
-14
-3
4
4
2
-11
-30
-66
-127
-150
-105
-57
-6
65
146
216
217
176
137
70
11
-41
-102
-99
-74
-72
-65
-26
26
33
39
24
1
2
-30
-91
-108
-79
-52
-28
-19
-26
-29
-31
-41
-46
-41
-30
-20
-1
31
67
82
82
86
74
54
27
7
-17
-38
-24
1
19
40
67
85
91
75
60
34
-21
-79
-102
-83
-73
-64
-51
-62
-73
-65
-49
-37
-9
21
26
35
80
108
94
85
66
33
30
9
-31
-48
-44
-26
-14
1
12
-7
-21
-12
-14
-31
-46
-63
-68
-42
-19
9
42
44
29
49
70
37
7
-11
-26
-16
-9
-6
7
27
42
41
31
17
-1
-41
-72
-72
-79
-71
-62
-41
-6
-9
-8
9
24
29
25
33
55
67
59
52
65
69
19
-18
-5
9
12
-9
-54
-96
-103
-79
-56
-36
-30
-21
18
31
8
-6
-27
-22
49
118
148
148
141
115
47
-41
-140
-196
-170
-126
-74
-3
82
186
207
140
68
2
-19
-30
-44
-69
-122
-119
-90
-109
-95
-64
-47
-10
29
57
69
33
-16
-6
25
44
92
126
110
71
32
13
16
1
-31
-50
-98
-157
-199
-203
-147
-115
-62
37
110
162
198
214
168
57
-73
-166
-178
-130
-62
-6
24
34
42
64
75
74
84
102
106
90
71
54
13
-51
-75
-49
-37
-26
-24
-40
-64
-66
-59
-66
-52
-54
-27
-22
-14
26
-4
-19
-17
-4
2
-24
-15
36
97
157
196
171
107
34
-50
-101
-95
-67
-31
12
13
-33
-87
-133
-131
-112
-79
17
113
213
264
218
158
60
-64
-168
-228
-232
-222
-206
-173
-142
-82
4
65
126
180
200
205
195
112
-7
-82
-89
-2
44
31
69
72
64
117
178
144
60
32
-39
-104
-90
-89
-115
-180
-198
-150
-127
-82
-30
-16
-2
-27
-60
-39
-29
-4
39
64
89
76
27
0
-13
-30
-29
-42
1
99
148
254
423
470
313
57
-100
-184
-245
-240
-292
-342
-313
-352
-378
-252
-98
29
165
283
384
450
457
394
200
-77
-275
-372
-354
-274
-143
67
185
259
327
299
186
42
14
61
45
4
-29
-72
-125
-171
-234
-220
-168
-134
-117
-128
-94
-26
1
-41
-18
45
62
84
94
44
1
-17
-64
-60
-112
-168
-90
-1
85
153
190
194
184
149
112
82
37
14
-11
-24
-30
-57
-92
-113
-123
-125
-103
-80
-65
-42
-14
-12
12
69
99
155
192
178
128
51
32
31
17
-19
-69
-87
-113
-120
-107
-95
-76
-59
-37
-47
-37
11
34
36
-10
-77
-127
-115
-46
2
60
97
165
228
229
168
46
-29
-79
-113
-170
-204
-143
-55
20
107
235
306
297
223
114
7
-59
-69
-95
-128
-120
-91
-80
-83
-55
-23
-38
-24
-3
-16
-11
-2
-9
-21
-53
-85
-88
-85
-65
-42
-25
-21
-27
-5
31
54
70
97
127
110
54
1
-61
-116
-128
-87
-2
82
152
189
186
144
110
77
31
-36
-126
-151
-125
-61
-19
18
62
57
41
4
-3
4
-6
6
-5
-39
-44
-23
-30
-84
-140
-162
-163
-127
-46
37
97
144
150
116
62
22
-14
-52
-65
-69
-57
-42
-30
-34
-29
10
44
69
95
101
74
60
28
-10
-30
-55
-55
-43
-7
12
15
20
34
45
-1
-64
-71
-44
-24
-3
13
49
97
107
103
97
45
-32
-71
-97
-115
-72
-22
4
21
34
4
-83
-118
-114
-84
-13
56
140
206
200
95
34
26
-69
-207
-250
-184
-99
9
105
174
221
233
208
140
17
-117
-168
-150
-117
-104
-79
-55
-36
-42
-56
-40
-2
52
73
84
80
12
-73
-115
-112
-94
-84
-120
-164
-123
-52
21
123
206
266
312
316
264
164
54
-17
-57
-92
-93
-95
-105
-105
-120
-85
-9
47
85
99
107
95
29
-51
-80
-97
-123
-140
-159
-165
-160
-154
-126
-75
-22
27
44
94
150
183
210
183
145
65
-7
-28
-59
-64
-55
-32
-19
-37
-47
-46
-16
20
47
32
-23
-46
-44
-19
22
25
-7
9
65
88
60
38
21
-9
-6
4
19
12
-24
-42
-51
-59
-47
-39
-46
-6
34
25
-47
-126
-101
-36
42
123
168
183
147
123
107
42
-22
-60
-84
-73
-58
-61
-55
-39
-16
-16
-29
-37
-44
-35
-21
-14
-24
-37
-36
-34
-26
-18
-14
-10
-16
-12
24
53
57
51
64
65
42
31
11
-19
-42
-54
-65
-49
4
53
49
20
24
17
-4
-12
-5
0
6
9
11
8
-32
-90
-142
-125
-89
-36
74
125
112
104
128
142
134
107
59
34
9
-24
-64
-79
-74
-75
-61
-59
-55
-54
-39
-35
-68
-65
-32
3
30
50
63
55
40
49
38
-23
-44
-50
-60
-50
-41
-12
4
10
10
9
22
42
75
49
-25
-83
-99
-82
-95
-67
22
101
170
225
213
100
-29
-97
-78
-40
-27
6
13
-27
-38
-22
-42
-53
-29
26
70
58
43
12
-6
-11
-30
-26
-26
-30
-22
-13
-22
-47
-67
-110
-143
-120
-69
-26
2
54
130
195
221
178
117
54
-19
-55
-70
-112
-214
-286
-239
-166
-36
135
242
304
312
271
198
105
8
-77
-107
-111
-113
-111
-78
-26
-13
-20
11
41
-10
-59
-71
-62
-42
-42
-19
27
29
-19
-47
-58
-64
-77
-89
-60
-7
64
108
121
94
69
46
3
-6
-8
26
47
45
51
57
109
118
54
2
-45
-96
-92
-47
-48
-86
-102
-92
-65
-25
-3
16
0
-17
12
31
23
-49
-117
-110
-59
33
90
91
100
125
125
117
92
14
-67
-87
-64
-55
-24
9
1
-24
-55
-61
-42
-47
-68
-16
72
113
140
171
183
133
55
-9
-87
-178
-253
-257
-220
-203
-168
-84
2
62
170
266
265
246
247
247
236
155
-31
-168
-196
-180
-156
-127
-115
-104
-65
-49
-41
-42
-47
-60
-91
-107
-104
-37
51
72
88
122
140
133
90
27
-56
-153
-161
-103
-42
40
115
178
163
59
-77
-142
-137
-136
-92
-22
139
299
364
385
332
238
67
-94
-193
-252
-241
-206
-154
-87
4
78
100
72
12
-70
-144
-162
-185
-178
-170
-210
-173
-89
-10
86
162
237
269
249
239
238
216
156
73
-32
-134
-195
-218
-212
-187
-123
-51
-7
52
93
90
77
19
-47
-62
-75
-112
-110
-47
29
77
87
103
128
132
112
61
-19
-69
-51
-33
-36
-44
-59
-75
-79
-89
-178
-263
-236
-162
-67
20
95
173
259
361
379
273
143
37
-61
-150
-253
-367
-424
-417
-294
-53
216
421
523
597
594
504
362
153
-85
-218
-249
-256
-277
-340
-352
-342
-267
-174
-158
-161
-145
-106
-94
-77
-38
29
129
276
413
466
407
231
97
2
-97
-122
-61
67
134
155
201
223
165
30
-107
-258
-422
-552
-630
-632
-468
-200
42
282
480
610
601
468
301
86
-84
-161
-173
-174
-168
-125
-121
-153
-143
-103
-98
-67
47
119
90
9
-7
0
-12
29
67
93
72
43
-22
-104
-117
-128
-192
-200
-31
99
175
291
388
431
343
191
81
25
-68
-179
-195
-172
-162
-169
-179
-203
-247
-233
-127
-22
22
113
167
121
93
72
32
-44
-141
-248
-340
-340
-218
14
266
464
620
653
543
341
81
-113
-231
-306
-302
